id,value
1053922973_0_I,-0.03387998982964661
1053922973_1_I,-0.033879989829646615
1053922973_2_I,-0.033879989829646615
1053922973_3_I,-0.033879989829646615
1053922973_4_I,-0.033879989829646615
1053922973_5_I,-0.033879989829646615
1053922973_6_I,-0.033879989829646615
1053922973_7_I,-0.033879989829646615
1053922973_8_I,-0.033879989829646615
1053922973_9_I,-0.033879989829646615
1053922973_10_I,-0.033879989829646615
1053922973_11_I,-0.03395697823802603
1053922973_12_I,-0.03399837444430543
1053922973_13_I,-0.03368894542317073
1053922973_14_I,-0.032574369334866286
1053922973_15_I,-0.0313757083456774
1053922973_16_I,-0.03079880740084759
1053922973_17_I,-0.0312696755298289
1053922973_18_I,-0.03244186489491394
1053922973_19_I,-0.03360942081128435
1053922973_20_I,-0.03398950992531717
1053922973_21_I,-0.034022090385752685
1053922973_22_I,-0.0340131283204757
1053922973_23_I,-0.033792429842226177
1053922973_24_I,-0.032840451223947006
1053922973_25_I,-0.031641802428044215
1053922973_26_I,-0.030902328399761314
1053922973_27_I,-0.031181042533232454
1053922973_28_I,-0.03226450135543231
1053922973_29_I,-0.03323633433840302
1053922973_30_I,-0.033761532424764776
1053922973_31_I,-0.03461806643344476
1053922973_32_I,-0.036609395585222915
1053922973_33_I,-0.03920224688239701
1053922973_34_I,-0.04137227492323052
1053922973_35_I,-0.04246261556220152
1053922973_36_I,-0.04291879521536522
1053922973_37_I,-0.04380125436723607
1053922973_38_I,-0.04499068503885397
1053922973_39_I,-0.04549904752256552
1053922973_40_I,-0.04495380034842829
1053922973_41_I,-0.04375505400623676
1053922973_42_I,-0.04260876318080929
1053922973_43_I,-0.042282031886711265
1053922973_44_I,-0.042314783053152054
1053922973_45_I,-0.04239764862542741
1053922973_46_I,-0.04239768520528568
1053922973_47_I,-0.0423976608187135
1053922973_48_I,-0.04239766081871349
1053922973_49_I,-0.04239766081871349
1053922973_50_I,-0.0423976608187135
1053922973_51_I,-0.0423976608187135
1053922973_52_I,-0.0423976608187135
1053922973_53_I,-0.0423976608187135
1053922973_54_I,-0.0423976608187135
1053922973_55_I,-0.0423976608187135
1053922973_56_I,-0.0423976608187135
1053922973_57_I,-0.0423976608187135
1053922973_58_I,-0.0423976608187135
1053922973_59_I,-0.0423976608187135
1053922973_60_I,-0.0423976608187135
1053922973_61_I,-0.0423976608187135
1053922973_62_I,-0.042658325932821595
1053922973_63_I,-0.042742694235234295
1053922973_64_I,-0.04172237520436248
1053922973_65_I,-0.038671861476537284
1053922973_66_I,-0.03480190941125652
1053922973_67_I,-0.03132327536801794
1053922973_68_I,-0.029446715706319345
1053922973_69_I,-0.029209993772172007
1053922973_70_I,-0.02954244778187546
1053922973_71_I,-0.02959900024276614
1053922973_72_I,-0.03004605118907628
1053922973_73_I,-0.031018668606785524
1053922973_74_I,-0.03279883738598556
1053922973_75_I,-0.035608880298430665
1053922973_76_I,-0.03850652051714151
1053922973_77_I,-0.040879570096834066
1053922973_78_I,-0.04221199734633897
1053922973_79_I,-0.04275372066079586
1053922973_80_I,-0.043332264373806315
1053922973_81_I,-0.04448341995089063
1053922973_82_I,-0.04569799317842845
1053922973_83_I,-0.046516772339448086
1053922973_84_I,-0.046727643029108146
1053922973_85_I,-0.04663712007316757
1053922973_86_I,-0.0465929316043733
1053922973_87_I,-0.04660502734417571
1053922973_88_I,-0.04674373816674844
1053922973_89_I,-0.04662907250434742
1053922973_90_I,-0.046123351899288956
1053922973_91_I,-0.045022027696004475
1053922973_92_I,-0.04309738030041708
1053922973_93_I,-0.04012686413618119
1053922973_94_I,-0.0372425190332319
1053922973_95_I,-0.03501761196765033
1053922973_96_I,-0.03386234910062089
1053922973_97_I,-0.03340338383582563
1053922973_98_I,-0.032646741291232906
1053922973_99_I,-0.03145346493108056
1053922973_100_I,-0.030829132103356246
1053922973_101_I,-0.03124388672974616
1053922973_102_I,-0.032390128782029265
1053922973_103_I,-0.03356201331496203
1053922973_104_I,-0.03398523008189919
1053922973_105_I,-0.03378692032438058
1053922973_106_I,-0.033184384658265
1053922973_107_I,-0.034170239920240514
1053922973_108_I,-0.03819158160866769
1053922973_109_I,-0.04429738181208895
1053922973_110_I,-0.05044168102311566
1053922973_111_I,-0.05452964904370589
1053922973_112_I,-0.05579097354707824
1053922973_113_I,-0.05637026659294301
1053922973_114_I,-0.05735989438373643
1053922973_115_I,-0.05747123682143733
1053922973_116_I,-0.05526429268322912
1053922973_117_I,-0.05165825247159836
1053922973_118_I,-0.048250448488276136
1053922973_119_I,-0.046457996266566604
1053922973_120_I,-0.04594303056419643
1053922973_121_I,-0.04525788871025508
1053922973_122_I,-0.044059252107638364
1053922973_123_I,-0.04356582639938846
1053922973_124_I,-0.04411662151869715
1053922973_125_I,-0.045023631297872214
1053922973_126_I,-0.04555199409621488
1053922973_127_I,-0.044571872265156826
1053922973_128_I,-0.04233033577430805
1053922973_129_I,-0.03935933520407018
1053922973_130_I,-0.03639650302703282
1053922973_131_I,-0.033180042370442475
1053922973_132_I,-0.031206753000689404
1053922973_133_I,-0.03145399330681118
1053922973_134_I,-0.03415833188314521
1053922973_135_I,-0.037844445404536436
1053922973_136_I,-0.04088673827108159
1053922973_137_I,-0.04237645189078528
1053922973_138_I,-0.0437038854353956
1053922973_139_I,-0.046389569022997235
1053922973_140_I,-0.05040117012330518
1053922973_141_I,-0.05446801937238557
1053922973_142_I,-0.057270925517532184
1053922973_143_I,-0.058613145453742355
1053922973_144_I,-0.058072791851756365
1053922973_145_I,-0.05903371516911718
1053922973_146_I,-0.06355374415348936
1053922973_147_I,-0.0716643914290416
1053922973_148_I,-0.08061404763571925
1053922973_149_I,-0.08871340392835113
1053922973_150_I,-0.09042024228499909
1053922973_151_I,-0.08561787997814782
1053922973_152_I,-0.07612713302991597
1053922973_153_I,-0.0650261776698408
1053922973_154_I,-0.0547227009084646
1053922973_155_I,-0.04775807435857822
1053922973_156_I,-0.04182244365584481
1053922973_157_I,-0.03515355121934519
1053922973_158_I,-0.027347664044835282
1053922973_159_I,-0.019264958977588162
1053922973_160_I,-0.012204571531651262
1053922973_161_I,-0.006428562398149855
1053922973_162_I,-0.0018296953208476001
1053922973_163_I,0.0018937555205287542
1053922973_164_I,0.005014917886953007
1053922973_165_I,0.008246739867057068
1053922973_166_I,0.011553654384300135
1053922973_167_I,0.014871631906963037
1053922973_168_I,0.018208458032961724
1053922973_169_I,0.022095996881214608
1053922973_170_I,0.025580377657137277
1053922973_171_I,0.026846524789905426
1053922973_172_I,0.0258927009209978
1053922973_173_I,0.020417043091882997
1053922973_174_I,0.009270272013560675
1053922973_175_I,-0.004985248665945134
1053922973_176_I,-0.018153198429890223
1053922973_177_I,-0.027415748767913545
1053922973_178_I,-0.030771444927872055
1053922973_179_I,-0.030949280680069576
1053922973_180_I,-0.031174202099735326
1053922973_181_I,-0.03270891005359586
1053922973_182_I,-0.03449191026162368
1053922973_183_I,-0.03615139913243162
1053922973_184_I,-0.03781414398011942
1053922973_185_I,-0.03949451551607928
1053922973_186_I,-0.04118033301699963
1053922973_187_I,-0.04285952549914382
1053922973_188_I,-0.044519887852628115
1053922973_189_I,-0.04613609979515047
1053922973_190_I,-0.04766476616049962
1053922973_191_I,-0.0494858182889762
1053922973_192_I,-0.0520128202988554
1053922973_193_I,-0.05489472009370312
1053922973_194_I,-0.05742887993201135
1053922973_195_I,-0.059069626244123145
1053922973_196_I,-0.05956789157847068
1053922973_197_I,-0.059418860062955596
1053922973_198_I,-0.05930587337909997
1053922973_199_I,-0.059307696460117354
1053922973_200_I,-0.05978027830003474
1053922973_201_I,-0.05953719959940523
1053922973_202_I,-0.05786718755320711
1053922973_203_I,-0.054534282492420524
1053922973_204_I,-0.049778064014060326
1053922973_205_I,-0.04402378220789278
1053922973_206_I,-0.03914874459049669
1053922973_207_I,-0.03524470674818844
1053922973_208_I,-0.032455956638700136
1053922973_209_I,-0.030306577373621656
1053922973_210_I,-0.028032213231173903
1053922973_211_I,-0.025142934281279908
1053922973_212_I,-0.022225875700228662
1053922973_213_I,-0.01971207310728986
1053922973_214_I,-0.018099329230926636
1053922973_215_I,-0.017152250096695
1053922973_216_I,-0.01677201466322908
1053922973_217_I,-0.017201803611369363
1053922973_218_I,-0.01837741928984601
1053922973_219_I,-0.01965454407503135
1053922973_220_I,-0.020748306223978222
1053922973_221_I,-0.02125918052462454
1053922973_222_I,-0.021296589526352133
1053922973_223_I,-0.02116704805491993
1053922973_224_I,-0.02116704805491993
1053922973_225_I,-0.020997419492742295
1053922973_226_I,-0.020933400306841626
1053922973_227_I,-0.021601517007958093
1053922973_228_I,-0.023469055485416838
1053922973_229_I,-0.02612995086138224
1053922973_230_I,-0.028939667511051013
1053922973_231_I,-0.03125416086650524
1053922973_232_I,-0.0332825339604153
1053922973_233_I,-0.035165728617215064
1053922973_234_I,-0.038312813909869056
1053922973_235_I,-0.04317407643942383
1053922973_236_I,-0.04972150046836412
1053922973_237_I,-0.057625246523119275
1053922973_238_I,-0.06683448005498828
1053922973_239_I,-0.07508458231305834
1053922973_240_I,-0.0816568115503367
1053922973_241_I,-0.08618496495818076
1053922973_242_I,-0.08814631081946081
1053922973_243_I,-0.0878676901678497
1053922973_244_I,-0.0869627259047898
1053922973_245_I,-0.08583802532460104
1053922973_246_I,-0.0852548304271871
1053922973_247_I,-0.08457704408070683
1053922973_248_I,-0.08245209572703278
1053922973_249_I,-0.07890791094726181
1053922973_250_I,-0.07514890559212427
1053922973_251_I,-0.07243246314713042
1053922973_252_I,-0.07163646326149013
1053922973_253_I,-0.07191340899898455
1053922973_254_I,-0.07213533419571354
1053922973_255_I,-0.07181491902381074
1053922973_256_I,-0.07068012646716719
1053922973_257_I,-0.06948147767126439
1053922973_258_I,-0.06879103580230209
1053922973_259_I,-0.06916801341142056
1053922973_260_I,-0.0709117652789886
1053922973_261_I,-0.07380138822734778
1053922973_262_I,-0.07674370686325764
1053922973_263_I,-0.0796558194040781
1053922973_264_I,-0.08211435093964634
1053922973_265_I,-0.08367216073672737
1053922973_266_I,-0.08446058526626339
1053922973_267_I,-0.08483572907905244
1053922973_268_I,-0.08483752149210784
1053922973_269_I,-0.08473175692855335
1053922973_270_I,-0.08473175692855335
1053922973_271_I,-0.08473175692855335
1053922973_272_I,-0.08473175692855335
1053922973_273_I,-0.08473175692855335
1053922973_274_I,-0.08473175692855335
1053922973_275_I,-0.08473175692855335
1053922973_276_I,-0.08473175692855335
1053922973_277_I,-0.08473175692855335
1053922973_278_I,-0.08473175692855335
1053922973_279_I,-0.08473175692855335
1053922973_280_I,-0.08473175692855335
1053922973_281_I,-0.08473175692855335
1053922973_282_I,-0.08473175692855335
1053922973_283_I,-0.08473175692855335
1053922973_284_I,-0.08473175692855335
1053922973_285_I,-0.08473175692855335
1053922973_286_I,-0.08473175692855335
1053922973_287_I,-0.08473175692855335
1053922973_288_I,-0.08473175692855335
1053922973_289_I,-0.08486580991583927
1053922973_290_I,-0.08482158486718673
1053922973_291_I,-0.08429278643598644
1053922973_292_I,-0.08319007441504868
1053922973_293_I,-0.08191299840300771
1053922973_294_I,-0.08086110799849779
1053922973_295_I,-0.0804339528001532
1053922973_296_I,-0.08042784396382154
1053922973_297_I,-0.08053648614289353
1053922973_298_I,-0.08053648614289353
1053922973_299_I,-0.08074859611381269
1053922973_300_I,-0.08074889318660108
1053922973_301_I,-0.07991550499087022
1053922973_302_I,-0.07779678186398598
1053922973_303_I,-0.07520393056681188
1053922973_304_I,-0.07294815786021144
1053922973_305_I,-0.07184067050504817
1053922973_306_I,-0.07173818039304941
1053922973_307_I,-0.07201881515382666
1053922973_308_I,-0.07201881515382666
1053922973_309_I,-0.07209373070357059
1053922973_310_I,-0.07213821181123105
1053922973_311_I,-0.07183506233243328
1053922973_312_I,-0.07073189915991014
1053922973_313_I,-0.06953328694386561
1053922973_314_I,-0.06882297371350994
1053922973_315_I,-0.06914506379952945
1053922973_316_I,-0.070836495384961
1053922973_317_I,-0.07368214490975333
1053922973_318_I,-0.07662689666047864
1053922973_319_I,-0.0796795878136049
1053922973_320_I,-0.08244262339120759
1053922973_321_I,-0.08338549916717944
1053922973_322_I,-0.08194195006760381
1053922973_323_I,-0.07860655129506482
1053922973_324_I,-0.0741462302462263
1053922973_325_I,-0.06988417092074906
1053922973_326_I,-0.06599984777458259
1053922973_327_I,-0.061439822225376875
1053922973_328_I,-0.05575678578983981
1053922973_329_I,-0.04918389405068384
1053922973_330_I,-0.042293429653258344
1053922973_331_I,-0.035655204809252
1053922973_332_I,-0.02901946370067306
1053922973_333_I,-0.022382022182924687
1053922973_334_I,-0.01573459103842601
1053922973_335_I,-0.00922605989718126
1053922973_336_I,-0.002465315436557122
1053922973_337_I,0.004704841882668433
1053922973_338_I,0.01244727076243789
1053922973_339_I,0.021000014815212124
1053922973_340_I,0.028267601293721575
1053922973_341_I,0.03873419909743793
1053922973_342_I,0.05611070958989513
1053922973_343_I,0.08125745408833175
1053922973_344_I,0.11206428762737547
1053922973_345_I,0.1444925858287922
1053922973_346_I,0.1740954306516122
1053922973_347_I,0.20385660307736453
1053922973_348_I,0.23527693478570674
1053922973_349_I,0.26763991946542953
1053922973_350_I,0.29837693055338027
1053922973_351_I,0.32812434969140886
1053922973_352_I,0.3598925865198931
1053922973_353_I,0.39599793789214827
1053922973_354_I,0.4350907914151514
1053922973_355_I,0.475150327550979
1053922973_356_I,0.5111701699943317
1053922973_357_I,0.5408971657476511
1053922973_358_I,0.5655699993379864
1053922973_359_I,0.5838249222893063
1053922973_360_I,0.5958154162970555
1053922973_361_I,0.6029823664125455
1053922973_362_I,0.6034336846394941
1053922973_363_I,0.5978679993452464
1053922973_364_I,0.587196505931548
1053922973_365_I,0.5714431309511518
1053922973_366_I,0.5524659457186006
1053922973_367_I,0.5280615292163792
1053922973_368_I,0.49626005570697157
1053922973_369_I,0.46033126496478344
1053922973_370_I,0.42259052234997163
1053922973_371_I,0.38655555616743725
1053922973_372_I,0.35116743161875136
1053922973_373_I,0.3144634032011881
1053922973_374_I,0.27192225585618285
1053922973_375_I,0.2220505677270861
1053922973_376_I,0.16583731370964505
1053922973_377_I,0.10733670415766652
1053922973_378_I,0.045984318508875105
1053922973_379_I,-0.008168834745259736
1053922973_380_I,-0.04890174178002851
1053922973_381_I,-0.07550008405534148
1053922973_382_I,-0.08663146572864272
1053922973_383_I,-0.08468715869144772
1053922973_384_I,-0.07833095716485892
1053922973_385_I,-0.0683995548336185
1053922973_386_I,-0.05564379578054252
1053922973_387_I,-0.04472113286665302
1053922973_388_I,-0.035133053196945443
1053922973_389_I,-0.027880812892715472
1053922973_390_I,-0.023608962358507072
1053922973_391_I,-0.021733210409638635
1053922973_392_I,-0.020806570178843874
1053922973_393_I,-0.020937370884185125
1053922973_394_I,-0.021167048054919937
1053922973_395_I,-0.021167048054919937
1053922973_396_I,-0.021167048054919937
1053922973_397_I,-0.021167048054919937
1053922973_398_I,-0.02101097399295343
1053922973_399_I,-0.020769768624459728
1053922973_400_I,-0.021475649041080982
1053922973_401_I,-0.024056782959815025
1053922973_402_I,-0.027770636207063576
1053922973_403_I,-0.03129516097573345
1053922973_404_I,-0.03333380451146741
1053922973_405_I,-0.034455093927498806
1053922973_406_I,-0.03618902909128294
1053922973_407_I,-0.03974625440578163
1053922973_408_I,-0.04473303757830665
1053922973_409_I,-0.05046378338637019
1053922973_410_I,-0.05501779062515613
1053922973_411_I,-0.05811247065216451
1053922973_412_I,-0.0595767490770821
1053922973_413_I,-0.05970760964037327
1053922973_414_I,-0.059152567193076155
1053922973_415_I,-0.05925246678602081
1053922973_416_I,-0.05998290558931017
1053922973_417_I,-0.06118156657849907
1053922973_418_I,-0.06213497181125088
1053922973_419_I,-0.0621371666027473
1053922973_420_I,-0.06118595616149187
1053922973_421_I,-0.06005070025997687
1053922973_422_I,-0.059379350121085146
1053922973_423_I,-0.05900928388821924
1053922973_424_I,-0.05838379269831627
1053922973_425_I,-0.057103205019881045
1053922973_426_I,-0.05548955588439893
1053922973_427_I,-0.05383547011730341
1053922973_428_I,-0.05195734565055647
1053922973_429_I,-0.0493262074350562
1053922973_430_I,-0.046443529486859744
1053922973_431_I,-0.04399337917275833
1053922973_432_I,-0.042502884074264245
1053922973_433_I,-0.042117060790326934
1053922973_434_I,-0.04200440184722169
1053922973_435_I,-0.04208128790589666
1053922973_436_I,-0.0432730748376783
1053922973_437_I,-0.04605308938141612
1053922973_438_I,-0.050329748134773124
1053922973_439_I,-0.055445689244458765
1053922973_440_I,-0.06053619774581293
1053922973_441_I,-0.06587040052399745
1053922973_442_I,-0.07248552167731571
1053922973_443_I,-0.07841608810189261
1053922973_444_I,-0.08238770298318551
1053922973_445_I,-0.0835702455566425
1053922973_446_I,-0.08197422532639352
1053922973_447_I,-0.07856706019736376
1053922973_448_I,-0.07562044730778872
1053922973_449_I,-0.072713383526397
1053922973_450_I,-0.07031256650883329
1053922973_451_I,-0.06881216602811098
1053922973_452_I,-0.0683385259587583
1053922973_453_I,-0.06789980598279655
1053922973_454_I,-0.06685862608689037
1053922973_455_I,-0.06472613969595739
1053922973_456_I,-0.06213326364271758
1053922973_457_I,-0.060104318942335325
1053922973_458_I,-0.059198611258317387
1053922973_459_I,-0.058719021234845736
1053922973_460_I,-0.05787641787077811
1053922973_461_I,-0.05659934185873714
1053922973_462_I,-0.055512920068017134
1053922973_463_I,-0.05501670209725235
1053922973_464_I,-0.054984694721263126
1053922973_465_I,-0.05511060259344017
1053922973_466_I,-0.05511060259344017
1053922973_467_I,-0.05528770748745925
1053922973_468_I,-0.055340512175597746
1053922973_469_I,-0.05464714428746708
1053922973_470_I,-0.05259843131438296
1053922973_471_I,-0.05000558001720886
1053922973_472_I,-0.04775222527618964
1053922973_473_I,-0.046552954253202675
1053922973_474_I,-0.0461022083717134
1053922973_475_I,-0.04547181991472401
1053922973_476_I,-0.044214814051589044
1053922973_477_I,-0.04304638021862008
1053922973_478_I,-0.04236606801445137
1053922973_479_I,-0.04224750050050118
1053922973_480_I,-0.04238427259058542
1053922973_481_I,-0.04239766081871349
1053922973_482_I,-0.04239766081871349
1053922973_483_I,-0.04239766081871349
1053922973_484_I,-0.04239766081871349
1053922973_485_I,-0.04239766081871349
1053922973_486_I,-0.04239766081871349
1053922973_487_I,-0.04239766081871349
1053922973_488_I,-0.04239766081871349
1053922973_489_I,-0.04239766081871349
1053922973_490_I,-0.04239766081871349
1053922973_491_I,-0.04239766081871349
1053922973_492_I,-0.04239766081871349
1053922973_493_I,-0.04239766081871349
1053922973_494_I,-0.04239766081871349
1053922973_495_I,-0.04239766081871349
1053922973_496_I,-0.04239766081871349
1053922973_497_I,-0.04239766081871349
1053922973_498_I,-0.042242269580768085
1053922973_499_I,-0.04231850200540985
1053922973_500_I,-0.04293265343924806
1053922973_501_I,-0.044078041961504805
1053922973_502_I,-0.045355117973545786
1053922973_503_I,-0.046364331876736734
1053922973_504_I,-0.04670613407244338
1053922973_505_I,-0.046680235532785816
1053922973_506_I,-0.046592931604373305
1053922973_507_I,-0.046592931604373305
1053922973_508_I,-0.046592931604373305
1053922973_509_I,-0.046592931604373305
1053922973_510_I,-0.046511731708876715
1053922973_511_I,-0.046315069522954486
1053922973_512_I,-0.04671785071189642
1053922973_513_I,-0.048342170450682356
1053922973_514_I,-0.05079547180550454
1053922973_515_I,-0.053266548015499446
1053922973_516_I,-0.054944192319803575
1053922973_517_I,-0.05538259748728806
1053922973_518_I,-0.05510735770136587
1053922973_519_I,-0.05500188725465163
1053922973_520_I,-0.05537958648461059
1053922973_521_I,-0.05640674890492768
1053922973_522_I,-0.05768382491696866
1053922973_523_I,-0.05881126492209924
1053922973_524_I,-0.05938951932168515
1053922973_525_I,-0.05945229035848231
1053922973_526_I,-0.05930587337909998
1053922973_527_I,-0.05930587337909998
1053922973_528_I,-0.05950791243469489
1053922973_529_I,-0.05968024421144957
1053922973_530_I,-0.05883635796588776
1053922973_531_I,-0.05618582134069705
1053922973_532_I,-0.052353124198346916
1053922973_533_I,-0.048399983992949654
1053922973_534_I,-0.04538935598190265
1053922973_535_I,-0.04299118675488828
1053922973_536_I,-0.03974824819280428
1053922973_537_I,-0.03567807054611453
1053922973_538_I,-0.0321559042545695
1053922973_539_I,-0.030225878880828873
1053922973_540_I,-0.029104798967622122
1053922973_541_I,-0.02714911079108836
1053922973_542_I,-0.02359806156074159
1053922973_543_I,-0.01949458257176287
1053922973_544_I,-0.01602750443829703
1053922973_545_I,-0.013919948144511163
1053922973_546_I,-0.012610896163429997
1053922973_547_I,-0.011061126175805232
1053922973_548_I,-0.008694286673668252
1053922973_549_I,-0.00612358503491898
1053922973_550_I,-0.0010575081839562551
1053922973_551_I,0.007704025201491618
1053922973_552_I,0.019693398165907504
1053922973_553_I,0.03362208889654601
1053922973_554_I,0.04857978692863656
1053922973_555_I,0.06050511595108607
1053922973_556_I,0.06966076368551972
1053922973_557_I,0.07598321530468881
1053922973_558_I,0.07873538518641021
1053922973_559_I,0.07793490075794302
1053922973_560_I,0.07609870124269959
1053922973_561_I,0.07356553718942214
1053922973_562_I,0.07174732757457887
1053922973_563_I,0.07191163543009857
1053922973_564_I,0.07386974194170708
1053922973_565_I,0.07639514663110833
1053922973_566_I,0.07873500202163213
1053922973_567_I,0.08001060818845884
1053922973_568_I,0.0809430590743163
1053922973_569_I,0.08308253221817952
1053922973_570_I,0.08664316795784856
1053922973_571_I,0.09023964456875516
1053922973_572_I,0.09204841325472223
1053922973_573_I,0.09358417574308289
1053922973_574_I,0.09763179211556888
1053922973_575_I,0.10461195623737701
1053922973_576_I,0.11217469044306032
1053922973_577_I,0.11774262521384522
1053922973_578_I,0.1194247444541448
1053922973_579_I,0.11884797689647496
1053922973_580_I,0.11831463665095249
1053922973_581_I,0.11924088263216363
1053922973_582_I,0.12200556097794694
1053922973_583_I,0.1258928064483466
1053922973_584_I,0.12987445233966383
1053922973_585_I,0.13288630559121625
1053922973_586_I,0.13502317158881708
1053922973_587_I,0.13730389323673403
1053922973_588_I,0.1402076740682191
1053922973_589_I,0.14288906783607772
1053922973_590_I,0.1449345122695024
1053922973_591_I,0.14762001628325433
1053922973_592_I,0.15262222876610038
1053922973_593_I,0.1591687431019996
1053922973_594_I,0.16519547834347076
1053922973_595_I,0.16879349204741187
1053922973_596_I,0.17031542217643592
1053922973_597_I,0.1721293412325492
1053922973_598_I,0.17555082017096937
1053922973_599_I,0.17931184074375361
1053922973_600_I,0.1822014803193211
1053922973_601_I,0.18267419702437251
1053922973_602_I,0.1810360390143537
1053922973_603_I,0.17848904297123316
1053922973_604_I,0.1759504126308517
1053922973_605_I,0.1743672563174289
1053922973_606_I,0.17361858633447216
1053922973_607_I,0.17261783235486736
1053922973_608_I,0.17055289196546353
1053922973_609_I,0.16740102320972663
1053922973_610_I,0.1634803503997484
1053922973_611_I,0.16026598809684628
1053922973_612_I,0.1580744400145425
1053922973_613_I,0.15700681288110463
1053922973_614_I,0.15625570165447508
1053922973_615_I,0.1548742038183237
1053922973_616_I,0.1523554245171921
1053922973_617_I,0.14956141910139853
1053922973_618_I,0.1472347202665671
1053922973_619_I,0.1449983559459821
1053922973_620_I,0.14204794022912065
1053922973_621_I,0.13793645505459579
1053922973_622_I,0.13300201470331185
1053922973_623_I,0.12789783198584675
1053922973_624_I,0.12273799282927193
1053922973_625_I,0.11727756404499144
1053922973_626_I,0.11108235712554722
1053922973_627_I,0.10362140729924346
1053922973_628_I,0.09445279736270788
1053922973_629_I,0.08545692712377077
1053922973_630_I,0.07784455183344938
1053922973_631_I,0.07240403357687515
1053922973_632_I,0.06853204966673938
1053922973_633_I,0.06479206288195587
1053922973_634_I,0.06018136979511927
1053922973_635_I,0.05561376371690006
1053922973_636_I,0.0515892417977642
1053922973_637_I,0.04846065593707155
1053922973_638_I,0.04580779482815967
1053922973_639_I,0.04392166528434712
1053922973_640_I,0.04352721210980543
1053922973_641_I,0.04435332054424638
1053922973_642_I,0.04476504680176348
1053922973_643_I,0.04330470533027924
1053922973_644_I,0.039989344191216684
1053922973_645_I,0.03640633377157042
1053922973_646_I,0.03410411129584608
1053922973_647_I,0.033388250120318944
1053922973_648_I,0.03326009277160484
1053922973_649_I,0.03211275997445686
1053922973_650_I,0.029567832725543128
1053922973_651_I,0.025538754951331403
1053922973_652_I,0.021454079487479287
1053922973_653_I,0.018315045458580613
1053922973_654_I,0.01680391562508515
1053922973_655_I,0.016347366847897043
1053922973_656_I,0.01628815809810609
1053922973_657_I,0.014560608890792057
1053922973_658_I,0.010800112629309735
1053922973_659_I,0.005528595534919731
1053922973_660_I,2.26573425184339e-05
1053922973_661_I,-0.004397523408508062
1053922973_662_I,-0.007047981701072964
1053922973_663_I,-0.008909258371883635
1053922973_664_I,-0.011273377293248229
1053922973_665_I,-0.015371894353774888
1053922973_666_I,-0.021526936588834915
1053922973_667_I,-0.028710209819465846
1053922973_668_I,-0.036059897018668574
1053922973_669_I,-0.042492303627378804
1053922973_670_I,-0.047992158847994695
1053922973_671_I,-0.05407827465374265
1053922973_672_I,-0.060143859182674245
1053922973_673_I,-0.06432172645414684
1053922973_674_I,-0.06558942398171615
1053922973_675_I,-0.0657705589415351
1053922973_676_I,-0.06787925770927836
1053922973_677_I,-0.07212721014173519
1053922973_678_I,-0.07535103221768291
1053922973_679_I,-0.07472653348736905
1053922973_680_I,-0.07030110777585577
1053922973_681_I,-0.06513581046103432
1053922973_682_I,-0.06167384500937585
1053922973_683_I,-0.05878488382390727
1053922973_684_I,-0.054600032016465586
1053922973_685_I,-0.04897765976568653
1053922973_686_I,-0.043144315953517025
1053922973_687_I,-0.038481074607043385
1053922973_688_I,-0.035644386039047495
1053922973_689_I,-0.03427410639559349
1053922973_690_I,-0.03364052440612877
1053922973_691_I,-0.03372189759408526
1053922973_692_I,-0.033879989829646615
1053922973_693_I,-0.033879989829646615
1053922973_694_I,-0.03401523775896947
1053922973_695_I,-0.03396922029726153
1053922973_696_I,-0.03343564209791352
1053922973_697_I,-0.032330540192901894
1053922973_698_I,-0.031053464180860923
1053922973_699_I,-0.029883493993844466
1053922973_700_I,-0.02948496863124185
1053922973_701_I,-0.029920488423844968
1053922973_702_I,-0.030998545620306458
1053922973_703_I,-0.032457972225840334
1053922973_704_I,-0.03388383958260975
1053922973_705_I,-0.03557234404039239
1053922973_706_I,-0.0384906167771435
1053922973_707_I,-0.04333904531884706
1053922973_708_I,-0.04889469258269376
1053922973_709_I,-0.054025729719547264
1053922973_710_I,-0.057347963438043
1053922973_711_I,-0.05879277953089157
1053922973_712_I,-0.059153408529816445
1053922973_713_I,-0.05942976935907199
1053922973_714_I,-0.05944794954863388
1053922973_715_I,-0.059424696952058084
1053922973_716_I,-0.05911790168071906
1053922973_717_I,-0.05815530271025451
1053922973_718_I,-0.05689277328852027
1053922973_719_I,-0.05554400777464027
1053922973_720_I,-0.05468368313196001
1053922973_721_I,-0.055371460952658144
1053922973_722_I,-0.05836548540298423
1053922973_723_I,-0.0620908505902769
1053922973_724_I,-0.06495511926293038
1053922973_725_I,-0.06568187569382021
1053922973_726_I,-0.06571181538408319
1053922973_727_I,-0.06751136151184314
1053922973_728_I,-0.07195615200913674
1053922973_729_I,-0.0774086740016274
1053922973_730_I,-0.08215876664695412
1053922973_731_I,-0.08370634775497876
1053922973_732_I,-0.08208133558534025
1053922973_733_I,-0.07879064183353357
1053922973_734_I,-0.07511281198732042
1053922973_735_I,-0.07250286792000767
1053922973_736_I,-0.07164446131817889
1053922973_737_I,-0.07117758371919104
1053922973_738_I,-0.07016760607289858
1053922973_739_I,-0.06892043354075583
1053922973_740_I,-0.06830231485501578
1053922973_741_I,-0.06784477140127747
1053922973_742_I,-0.06661941265795175
1053922973_743_I,-0.06435007030190597
1053922973_744_I,-0.0617638783864052
1053922973_745_I,-0.05944797319621903
1053922973_746_I,-0.05890024524260253
1053922973_747_I,-0.06006223991203485
1053922973_748_I,-0.06244315083581451
1053922973_749_I,-0.06528982976954772
1053922973_750_I,-0.06787474028152836
1053922973_751_I,-0.07000829598670216
1053922973_752_I,-0.07272623968385929
1053922973_753_I,-0.07658358832524403
1053922973_754_I,-0.08061402805256279
1053922973_755_I,-0.08371337663017002
1053922973_756_I,-0.08503562765869808
1053922973_757_I,-0.08516226638905355
1053922973_758_I,-0.08516338706289339
1053922973_759_I,-0.08466303224270207
1053922973_760_I,-0.08239015494217039
1053922973_761_I,-0.07877902089290167
1053922973_762_I,-0.07508309990506448
1053922973_763_I,-0.07283896772225239
1053922973_764_I,-0.07171803486746578
1053922973_765_I,-0.06994845872843726
1053922973_766_I,-0.06660620659012802
1053922973_767_I,-0.06246641156124769
1053922973_768_I,-0.058606088127550214
1053922973_769_I,-0.056440283397626446
1053922973_770_I,-0.055583112012628055
1053922973_771_I,-0.05528158239341282
1053922973_772_I,-0.05461326173187446
1053922973_773_I,-0.05258024706039239
1053922973_774_I,-0.05014732142561553
1053922973_775_I,-0.048902028506998416
1053922973_776_I,-0.049770471661254256
1053922973_777_I,-0.05210996938205271
1053922973_778_I,-0.05410351327797723
1053922973_779_I,-0.05504275249874578
1053922973_780_I,-0.056463490546499524
1053922973_781_I,-0.05936294128344815
1053922973_782_I,-0.06363441789021643
1053922973_783_I,-0.06824712841166082
1053922973_784_I,-0.07207285247234091
1053922973_785_I,-0.07545017619638343
1053922973_786_I,-0.07889253077957865
1053922973_787_I,-0.08191252508181127
1053922973_788_I,-0.08395978520638296
1053922973_789_I,-0.08491737790917331
1053922973_790_I,-0.08497466344520352
1053922973_791_I,-0.08442468268960832
1053922973_792_I,-0.08465219093339298
1053922973_793_I,-0.08593132095990003
1053922973_794_I,-0.08826355185168167
1053922973_795_I,-0.09114753263402231
1053922973_796_I,-0.09438958515065034
1053922973_797_I,-0.09612666027034969
1053922973_798_I,-0.09602648762169529
1053922973_799_I,-0.0942496136161945
1053922973_800_I,-0.09146491278616897
1053922973_801_I,-0.08889039464887317
1053922973_802_I,-0.08672117616833741
1053922973_803_I,-0.0836550517088739
1053922973_804_I,-0.07904750338136828
1053922973_805_I,-0.07257016746936037
1053922973_806_I,-0.06453299619680623
1053922973_807_I,-0.056603247035727965
1053922973_808_I,-0.04906551867336296
1053922973_809_I,-0.042314032981310694
1053922973_810_I,-0.03754434276928739
1053922973_811_I,-0.0348367666907494
1053922973_812_I,-0.03358491230624118
1053922973_813_I,-0.03344945598257422
1053922973_814_I,-0.03343965184156992
1053922973_815_I,-0.03388750348033338
1053922973_816_I,-0.03598484106138784
1053922973_817_I,-0.03955378412382013
1053922973_818_I,-0.04369081312422535
1053922973_819_I,-0.04733436801272983
1053922973_820_I,-0.04956125371609981
1053922973_821_I,-0.05119449894030446
1053922973_822_I,-0.052769872981253
1053922973_823_I,-0.05410235306833098
1053922973_824_I,-0.05491799744634463
1053922973_825_I,-0.055228731149091076
1053922973_826_I,-0.055123429930408044
1053922973_827_I,-0.05498608475587752
1053922973_828_I,-0.055258324254434256
1053922973_829_I,-0.056169101759011485
1053922973_830_I,-0.05741434110106851
1053922973_831_I,-0.05859449268197106
1053922973_832_I,-0.059310006903084876
1053922973_833_I,-0.059452144039049214
1053922973_834_I,-0.05932708969689855
1053922973_835_I,-0.05930587337909998
1053922973_836_I,-0.05919970532862393
1053922973_837_I,-0.05888364094289455
1053922973_838_I,-0.05943975381291304
1053922973_839_I,-0.06179643446026853
1053922973_840_I,-0.0654355029584785
1053922973_841_I,-0.06914620294804519
1053922973_842_I,-0.07171777806947083
1053922973_843_I,-0.07241722819039983
1053922973_844_I,-0.07198734760786711
1053922973_845_I,-0.07179303983464101
1053922973_846_I,-0.07253057254398079
1053922973_847_I,-0.07489769803410065
1053922973_848_I,-0.07729797189619303
1053922973_849_I,-0.07853020913084822
1053922973_850_I,-0.0775239556097228
1053922973_851_I,-0.07415704347402802
1053922973_852_I,-0.069680849722647
1053922973_853_I,-0.06487843346974213
1053922973_854_I,-0.058542349017736126
1053922973_855_I,-0.051046787625128875
1053922973_856_I,-0.04399801927235628
1053922973_857_I,-0.03847944698809697
1053922973_858_I,-0.03533609653592204
1053922973_859_I,-0.03379503698848857
1053922973_860_I,-0.03262339299583598
1053922973_861_I,-0.030750357932804753
1053922973_862_I,-0.028128714961727832
1053922973_863_I,-0.025246027776193416
1053922973_864_I,-0.022788156156048164
1053922973_865_I,-0.021283995709287584
1053922973_866_I,-0.020888047194478898
1053922973_867_I,-0.021088125717467755
1053922973_868_I,-0.02116704805491993
1053922973_869_I,-0.02116704805491993
1053922973_870_I,-0.02116704805491993
1053922973_871_I,-0.02116704805491993
1053922973_872_I,-0.02116704805491993
1053922973_873_I,-0.02116704805491993
1053922973_874_I,-0.02116704805491993
1053922973_875_I,-0.02116704805491993
1053922973_876_I,-0.02116704805491993
1053922973_877_I,-0.02124069550291038
1053922973_878_I,-0.02128707876320105
1053922973_879_I,-0.020987709203091533
1053922973_880_I,-0.02003629147597256
1053922973_881_I,-0.01877750539306829
1053922973_882_I,-0.017610900553012985
1053922973_883_I,-0.01693602655444092
1053922973_884_I,-0.016821019480029346
1053922973_885_I,-0.01722328559500732
1053922973_886_I,-0.01715843800463948
1053922973_887_I,-0.0161185594649034
1053922973_888_I,-0.013896578787983711
1053922973_889_I,-0.011303702734743909
1053922973_890_I,-0.009151138066047525
1053922973_891_I,-0.008250091542758055
1053922973_892_I,-0.008165648602654738
1053922973_893_I,-0.008165326773800639
1053922973_894_I,-0.0085030242660168
1053922973_895_I,-0.009725587790879498
1053922973_896_I,-0.01212699821503299
1053922973_897_I,-0.015824326234186403
1053922973_898_I,-0.020736916216795027
1053922973_899_I,-0.025110234843931635
1053922973_900_I,-0.027923024940682422
1053922973_901_I,-0.029367106849910878
1053922973_902_I,-0.031234487923130997
1053922973_903_I,-0.035575876767917146
1053922973_904_I,-0.042192582309440216
1053922973_905_I,-0.04931449596851243
1053922973_906_I,-0.05480502554222971
1053922973_907_I,-0.05746966204006398
1053922973_908_I,-0.05818274684129752
1053922973_909_I,-0.0574318347716741
1053922973_910_I,-0.0544532322417987
1053922973_911_I,-0.050131809718240015
1053922973_912_I,-0.04638460746403869
1053922973_913_I,-0.04425016386594132
1053922973_914_I,-0.0442969661318813
1053922973_915_I,-0.04554799469837699
1053922973_916_I,-0.0467030979442067
1053922973_917_I,-0.046669029902868066
1053922973_918_I,-0.04575150951108244
1053922973_919_I,-0.04451154986190288
1053922973_920_I,-0.04334993983522272
1053922973_921_I,-0.042767105932975794
1053922973_922_I,-0.04223465062442872
1053922973_923_I,-0.04111957128595289
1053922973_924_I,-0.03878460762011275
1053922973_925_I,-0.03512508950315387
1053922973_926_I,-0.03034311547912754
1053922973_927_I,-0.025838847610255476
1053922973_928_I,-0.022395684944736562
1053922973_929_I,-0.019811518592701007
1053922973_930_I,-0.016388580524378592
1053922973_931_I,-0.010174603703717899
1053922973_932_I,-0.0020129164410687037
1053922973_933_I,0.006301060161443014
1053922973_934_I,0.012501341335368735
1053922973_935_I,0.01505446801493848
1053922973_936_I,0.014448171274304056
1053922973_937_I,0.012546742112395284
1053922973_938_I,0.009672674841140263
1053922973_939_I,0.00711358675315251
1053922973_940_I,0.005085287927439567
1053922973_941_I,0.0026870906189178432
1053922973_942_I,-0.0002067331012464742
1053922973_943_I,-0.0031641880391176515
1053922973_944_I,-0.005800545350558432
1053922973_945_I,-0.007242814894081529
1053922973_946_I,-0.007303234843624204
1053922973_947_I,-0.0064977666865874
1053922973_948_I,-0.005346750778052851
1053922973_949_I,-0.004641200319143083
1053922973_950_I,-0.004117627265273127
1053922973_951_I,-0.0024426562465711017
1053922973_952_I,-4.15550884921004e-05
1053922973_953_I,0.0013644941139505237
1053922973_954_I,0.0002338997426575176
1053922973_955_I,-0.0032022488274108477
1053922973_956_I,-0.007417371021814055
1053922973_957_I,-0.010478286361662016
1053922973_958_I,-0.011940168251622425
1053922973_959_I,-0.01169479277928556
1053922973_960_I,-0.012355496331952136
1053922973_961_I,-0.015330086162223016
1053922973_962_I,-0.021003339887379815
1053922973_963_I,-0.02746613105654859
1053922973_964_I,-0.033031849974706574
1053922973_965_I,-0.03471067185485229
1053922973_966_I,-0.03298729792429068
1053922973_967_I,-0.02916875127519606
1053922973_968_I,-0.025298787386122713
1053922973_969_I,-0.02261202229099415
1053922973_970_I,-0.021241230899017836
1053922973_971_I,-0.0193067808404002
1053922973_972_I,-0.015288703996697298
1053922973_973_I,-0.01014165153280337
1053922973_974_I,-0.005476422311203361
1053922973_975_I,-0.0035572519180319864
1053922973_976_I,-0.004702923841816959
1053922973_977_I,-0.008240783262054789
1053922973_978_I,-0.01225114064718145
1053922973_979_I,-0.01594934473546583
1053922973_980_I,-0.018679552661469513
1053922973_981_I,-0.021494029865623092
1053922973_982_I,-0.025496287952837086
1053922973_983_I,-0.03130729366488764
1053922973_984_I,-0.038533451791181644
1053922973_985_I,-0.04561416987895467
1053922973_986_I,-0.05072615112660884
1053922973_987_I,-0.05369711363901437
1053922973_988_I,-0.053425409167071565
1053922973_989_I,-0.049911270122203207
1053922973_990_I,-0.044542864437546015
1053922973_991_I,-0.038484929902409294
1053922973_992_I,-0.03204953963354192
1053922973_993_I,-0.026712034691787807
1053922973_994_I,-0.022165050046803327
1053922973_995_I,-0.01819532290789343
1053922973_996_I,-0.014928895642875703
1053922973_997_I,-0.012324251960077408
1053922973_998_I,-0.010302294751612397
1053922973_999_I,-0.009113760840762467
1053922973_1000_I,-0.008650930304276327
1053922973_1001_I,-0.008280888457982603
1053922973_1002_I,-0.007613403590781765
1053922973_1003_I,-0.006454700000113515
1053922973_1004_I,-0.005262589022516665
1053922973_1005_I,-0.004667283605559612
1053922973_1006_I,-0.004161487254329967
1053922973_1007_I,-0.0029058481477177685
1053922973_1008_I,-0.0005970712264791638
1053922973_1009_I,0.0022925125555670963
1053922973_1010_I,0.005337613942341899
1053922973_1011_I,0.007100788975666074
1053922973_1012_I,0.007424250252130552
1053922973_1013_I,0.006695541786985587
1053922973_1014_I,0.005797542846231868
1053922973_1015_I,0.005309707205414469
1053922973_1016_I,0.006365559688916969
1053922973_1017_I,0.008968050702479904
1053922973_1018_I,0.012283714087240109
1053922973_1019_I,0.013950103988482123
1053922973_1020_I,0.01322124698694295
1053922973_1021_I,0.008690752468169412
1053922973_1022_I,0.0005310216736975656
1053922973_1023_I,-0.009766737544982447
1053922973_1024_I,-0.02092156542946287
1053922973_1025_I,-0.033717478082117495
1053922973_1026_I,-0.04531067344574359
1053922973_1027_I,-0.05387925731613723
1053922973_1028_I,-0.05854951940894475
1053922973_1029_I,-0.0603192987694081
1053922973_1030_I,-0.061384320234557616
1053922973_1031_I,-0.06352601551243756
1053922973_1032_I,-0.06522545660885692
1053922973_1033_I,-0.06489363812800426
1053922973_1034_I,-0.062801936062085
1053922973_1035_I,-0.0604693678227215
1053922973_1036_I,-0.05924538876819167
1053922973_1037_I,-0.058795208950771845
1053922973_1038_I,-0.05807689988068853
1053922973_1039_I,-0.05679978728878928
1053922973_1040_I,-0.05536485884248009
1053922973_1041_I,-0.05454328076806227
1053922973_1042_I,-0.05564151120212126
1053922973_1043_I,-0.059156814521064575
1053922973_1044_I,-0.06438600650247114
1053922973_1045_I,-0.07074776632004989
1053922973_1046_I,-0.07683157094384331
1053922973_1047_I,-0.08144264756495147
1053922973_1048_I,-0.08465251682667577
1053922973_1049_I,-0.08709146927022332
1053922973_1050_I,-0.08941112371113576
1053922973_1051_I,-0.09235732092050315
1053922973_1052_I,-0.09450105580260197
1053922973_1053_I,-0.09433332385065181
1053922973_1054_I,-0.09153169282763549
1053922973_1055_I,-0.08711874269526104
1053922973_1056_I,-0.08283742056421445
1053922973_1057_I,-0.0788054363539908
1053922973_1058_I,-0.07372403956278839
1053922973_1059_I,-0.06689923416349607
1053922973_1060_I,-0.05826063829183471
1053922973_1061_I,-0.047686732550139554
1053922973_1062_I,-0.03877609153351188
1053922973_1063_I,-0.03298003257324795
1053922973_1064_I,-0.03097689330015674
1053922973_1065_I,-0.031870074414930394
1053922973_1066_I,-0.03370011447323021
1053922973_1067_I,-0.033999996151355544
1053922973_1068_I,-0.03395378359707015
1053922973_1069_I,-0.033879989829646615
1053922973_1070_I,-0.03387998982964661
1053922973_1071_I,-0.033597127022956357
1053922973_1072_I,-0.03370295920382462
1053922973_1073_I,-0.034819358742639965
1053922973_1074_I,-0.03707958754106644
1053922973_1075_I,-0.03967243883824053
1053922973_1076_I,-0.04166213926259173
1053922973_1077_I,-0.04251661075845472
1053922973_1078_I,-0.04292519927701769
1053922973_1079_I,-0.043598532487620065
1053922973_1080_I,-0.04527066653509155
1053922973_1081_I,-0.04795426174532993
1053922973_1082_I,-0.050868800750082536
1053922973_1083_I,-0.05334012932415018
1053922973_1084_I,-0.05479029826959274
1053922973_1085_I,-0.05538669849584338
1053922973_1086_I,-0.055939369164248985
1053922973_1087_I,-0.05702799683127094
1053922973_1088_I,-0.0582968878229031
1053922973_1089_I,-0.0596291724479101
1053922973_1090_I,-0.05957233732447822
1053922973_1091_I,-0.05750451008221893
1053922973_1092_I,-0.05392117118283523
1053922973_1093_I,-0.05009284847424366
1053922973_1094_I,-0.04671008543612395
1053922973_1095_I,-0.045987676096472356
1053922973_1096_I,-0.04779238663513219
1053922973_1097_I,-0.05135112502558674
1053922973_1098_I,-0.05577858405992908
1053922973_1099_I,-0.06030495244458809
1053922973_1100_I,-0.0640665952444565
1053922973_1101_I,-0.06793112573134893
1053922973_1102_I,-0.07229376821277896
1053922973_1103_I,-0.07690796409816536
1053922973_1104_I,-0.0813985865714209
1053922973_1105_I,-0.0850965663771399
1053922973_1106_I,-0.08805726842404651
1053922973_1107_I,-0.09057640133047472
1053922973_1108_I,-0.09184967303725525
1053922973_1109_I,-0.09115563119294792
1053922973_1110_I,-0.0891577368803435
1053922973_1111_I,-0.08679966952381529
1053922973_1112_I,-0.08536824202858832
1053922973_1113_I,-0.08448222908806217
1053922973_1114_I,-0.08247984173427993
1053922973_1115_I,-0.07900431180608534
1053922973_1116_I,-0.0752364245657642
1053922973_1117_I,-0.07262186441593214
1053922973_1118_I,-0.07169811547191506
1053922973_1119_I,-0.07130802010392363
1053922973_1120_I,-0.0703874510211217
1053922973_1121_I,-0.0688093959352072
1053922973_1122_I,-0.06701624795720341
1053922973_1123_I,-0.06536718804093858
1053922973_1124_I,-0.06363978367508358
1053922973_1125_I,-0.06189534344109166
1053922973_1126_I,-0.060475632585317705
1053922973_1127_I,-0.05943186253985097
1053922973_1128_I,-0.059102823389240076
1053922973_1129_I,-0.05988572805511199
1053922973_1130_I,-0.06151340057807947
1053922973_1131_I,-0.06167547484528337
1053922973_1132_I,-0.05876958753125271
1053922973_1133_I,-0.053018517362742844
1053922973_1134_I,-0.046011738253345896
1053922973_1135_I,-0.039744650803913886
1053922973_1136_I,-0.03618255593434261
1053922973_1137_I,-0.03459089055469576
1053922973_1138_I,-0.0337921867154914
1053922973_1139_I,-0.033288397453051045
1053922973_1140_I,-0.03223815166418936
1053922973_1141_I,-0.031227047801654296
1053922973_1142_I,-0.03214328789840035
1053922973_1143_I,-0.034108431044564
1053922973_1144_I,-0.0341656131224092
1053922973_1145_I,-0.03152656035575525
1053922973_1146_I,-0.021710417093505602
1053922973_1147_I,-0.004040519879980938
1053922973_1148_I,0.01861861061758603
1053922973_1149_I,0.042836988242018696
1053922973_1150_I,0.06351939455809008
1053922973_1151_I,0.08320142119149028
1053922973_1152_I,0.10790591815934963
1053922973_1153_I,0.141598981218284
1053922973_1154_I,0.18721989730988872
1053922973_1155_I,0.24710642125403828
1053922973_1156_I,0.30344780047425735
1053922973_1157_I,0.34574524504408133
1053922973_1158_I,0.36730854607646873
1053922973_1159_I,0.377668852418874
1053922973_1160_I,0.39412184231430825
1053922973_1161_I,0.42450870360899556
1053922973_1162_I,0.4547012996222114
1053922973_1163_I,0.4718251770506529
1053922973_1164_I,0.4774889115143076
1053922973_1165_I,0.48630305486481007
1053922973_1166_I,0.504687517070601
1053922973_1167_I,0.5237237325875742
1053922973_1168_I,0.5339414838968464
1053922973_1169_I,0.5315017078522475
1053922973_1170_I,0.5250098582348558
1053922973_1171_I,0.5194389464547972
1053922973_1172_I,0.5097801387053842
1053922973_1173_I,0.4900815317893546
1053922973_1174_I,0.4626744554038
1053922973_1175_I,0.4332580813966912
1053922973_1176_I,0.4078484732977148
1053922973_1177_I,0.38580915746113514
1053922973_1178_I,0.3633973788567324
1053922973_1179_I,0.33668050527783405
1053922973_1180_I,0.3084256988056506
1053922973_1181_I,0.27908006691900084
1053922973_1182_I,0.24210997028361708
1053922973_1183_I,0.19012846308243075
1053922973_1184_I,0.13136259080850066
1053922973_1185_I,0.07530775639787786
1053922973_1186_I,0.031187726670971503
1053922973_1187_I,0.005760719122236635
1053922973_1188_I,-0.006337676969068222
1053922973_1189_I,-0.015316413793579686
1053922973_1190_I,-0.021912600251572503
1053922973_1191_I,-0.028932313481563995
1053922973_1192_I,-0.037844572510306596
1053922973_1193_I,-0.046475979146589914
1053922973_1194_I,-0.053057878768219095
1053922973_1195_I,-0.057020950959377856
1053922973_1196_I,-0.058771368120515526
1053922973_1197_I,-0.05965766150662176
1053922973_1198_I,-0.060124685425042707
1053922973_1199_I,-0.061113954807123734
1053922973_1200_I,-0.06237230193172873
1053922973_1201_I,-0.06332254910338295
1053922973_1202_I,-0.06362113829318264
1053922973_1203_I,-0.06336629048502054
1053922973_1204_I,-0.06312969343968226
1053922973_1205_I,-0.06399185631261414
1053922973_1206_I,-0.06694716855757493
1053922973_1207_I,-0.0706864340910115
1053922973_1208_I,-0.07358326474942459
1053922973_1209_I,-0.07442762320770228
1053922973_1210_I,-0.0740314308271718
1053922973_1211_I,-0.07459853280390653
1053922973_1212_I,-0.07657572550318285
1053922973_1213_I,-0.07777000614671688
1053922973_1214_I,-0.0766265655942866
1053922973_1215_I,-0.07557404483383512
1053922973_1216_I,-0.07811842375436825
1053922973_1217_I,-0.0844191872125164
1053922973_1218_I,-0.09131701672423445
1053922973_1219_I,-0.09550086794322962
1053922973_1220_I,-0.0955095783834209
1053922973_1221_I,-0.09404137926278473
1053922973_1222_I,-0.09324732586899682
1053922973_1223_I,-0.09248486306250994
1053922973_1224_I,-0.09100248278065626
1053922973_1225_I,-0.08812380496928471
1053922973_1226_I,-0.08418069540441825
1053922973_1227_I,-0.07963892763841318
1053922973_1228_I,-0.07439392613785566
1053922973_1229_I,-0.06780886586867425
1053922973_1230_I,-0.0617623623545012
1053922973_1231_I,-0.05736475174552291
1053922973_1232_I,-0.055119839931388005
1053922973_1233_I,-0.05418048875408352
1053922973_1234_I,-0.052921111481550584
1053922973_1235_I,-0.05041024266714402
1053922973_1236_I,-0.04775959149896277
1053922973_1237_I,-0.04591118391788749
1053922973_1238_I,-0.0468014700509483
1053922973_1239_I,-0.05111456899402895
1053922973_1240_I,-0.05740638960056302
1053922973_1241_I,-0.06437017333573504
1053922973_1242_I,-0.07025010178216248
1053922973_1243_I,-0.07410948226840225
1053922973_1244_I,-0.07732135085955195
1053922973_1245_I,-0.08053713423452397
1053922973_1246_I,-0.08311133275992677
1053922973_1247_I,-0.0848351877710487
1053922973_1248_I,-0.08500664828208815
1053922973_1249_I,-0.08347675778471417
1053922973_1250_I,-0.08099732400083759
1053922973_1251_I,-0.07810716343940985
1053922973_1252_I,-0.07524054848291761
1053922973_1253_I,-0.07341216745051324
1053922973_1254_I,-0.07239969757044243
1053922973_1255_I,-0.07193702259072735
1053922973_1256_I,-0.07186864264232827
1053922973_1257_I,-0.0721675732441385
1053922973_1258_I,-0.07210129054094709
1053922973_1259_I,-0.07151367169764318
1053922973_1260_I,-0.0703815494706536
1053922973_1261_I,-0.06910447345861263
1053922973_1262_I,-0.06808199326015453
1053922973_1263_I,-0.06771365847391356
1053922973_1264_I,-0.06763332910514518
1053922973_1265_I,-0.06755797459710196
1053922973_1266_I,-0.06800359043058854
1053922973_1267_I,-0.06943501829530903
1053922973_1268_I,-0.07192073605544476
1053922973_1269_I,-0.07518242345761471
1053922973_1270_I,-0.07861656752534839
1053922973_1271_I,-0.0821332135837358
1053922973_1272_I,-0.08635798103693061
1053922973_1273_I,-0.09090170527111302
1053922973_1274_I,-0.09505015199071529
1053922973_1275_I,-0.09817536770103107
1053922973_1276_I,-0.10043948467974653
1053922973_1277_I,-0.10310348675721052
1053922973_1278_I,-0.10596878114386975
1053922973_1279_I,-0.10715955012100954
1053922973_1280_I,-0.10557332220797229
1053922973_1281_I,-0.10054070410353719
1053922973_1282_I,-0.09283183779797385
1053922973_1283_I,-0.08455268706800599
1053922973_1284_I,-0.07690780336848507
1053922973_1285_I,-0.0699111701815965
1053922973_1286_I,-0.06432508699769225
1053922973_1287_I,-0.059754255241061656
1053922973_1288_I,-0.055820745856777605
1053922973_1289_I,-0.053187620874631525
1053922973_1290_I,-0.05244693934153209
1053922973_1291_I,-0.05295902410294309
1053922973_1292_I,-0.05416930529377684
1053922973_1293_I,-0.05509894581193705
1053922973_1294_I,-0.05525455652903209
1053922973_1295_I,-0.05513639139352292
1053922973_1296_I,-0.05511067575315672
1053922973_1297_I,-0.05508020473121497
1053922973_1298_I,-0.054969062928494294
1053922973_1299_I,-0.05513887882388551
1053922973_1300_I,-0.05589608189014491
1053922973_1301_I,-0.05709012162390527
1053922973_1302_I,-0.05833715337901769
1053922973_1303_I,-0.0593395390419976
1053922973_1304_I,-0.059458521127674885
1053922973_1305_I,-0.05886999480829098
1053922973_1306_I,-0.057697067195157145
1053922973_1307_I,-0.05575409292108125
1053922973_1308_I,-0.052771769591480444
1053922973_1309_I,-0.04989015689309613
1053922973_1310_I,-0.04746803155384787
1053922973_1311_I,-0.046187389929359036
1053922973_1312_I,-0.0466285419116557
1053922973_1313_I,-0.04871857164991287
1053922973_1314_I,-0.051326850779433913
1053922973_1315_I,-0.054148992018136055
1053922973_1316_I,-0.05651076317768782
1053922973_1317_I,-0.058539063111881326
1053922973_1318_I,-0.06094986236632499
1053922973_1319_I,-0.06385413868861754
1053922973_1320_I,-0.06677099996013022
1053922973_1321_I,-0.06928295471598594
1053922973_1322_I,-0.07089379200579675
1053922973_1323_I,-0.07172611790766363
1053922973_1324_I,-0.0721184708810495
1053922973_1325_I,-0.07213335888336678
1053922973_1326_I,-0.07201890050682931
1053922973_1327_I,-0.07201888831354321
1053922973_1328_I,-0.07201885173368494
1053922973_1329_I,-0.07201879076725448
1053922973_1330_I,-0.07203164249079454
1053922973_1331_I,-0.07216925591761907
1053922973_1332_I,-0.07205237107714947
1053922973_1333_I,-0.07129069307489462
1053922973_1334_I,-0.07009208085885009
1053922973_1335_I,-0.06916433030003401
1053922973_1336_I,-0.06968269090884675
1053922973_1337_I,-0.07043061931831303
1053922973_1338_I,-0.06977410286619144
1053922973_1339_I,-0.06700795689215497
1053922973_1340_I,-0.06322230957640182
1053922973_1341_I,-0.060147326879339866
1053922973_1342_I,-0.05905036639450194
1053922973_1343_I,-0.058794069432762594
1053922973_1344_I,-0.05825138174022395
1053922973_1345_I,-0.05599426259924424
1053922973_1346_I,-0.051569899181594964
1053922973_1347_I,-0.046142221933248774
1053922973_1348_I,-0.04103576683064852
1053922973_1349_I,-0.0375508798486063
1053922973_1350_I,-0.03437747848861949
1053922973_1351_I,-0.02925236544133869
1053922973_1352_I,-0.02157238872546045
1053922973_1353_I,-0.012879566724097206
1053922973_1354_I,-0.004896518123059957
1053922973_1355_I,0.00044328876331075273
1053922973_1356_I,0.003974959906110577
1053922973_1357_I,0.006458963955310231
1053922973_1358_I,0.007803894865461328
1053922973_1359_I,0.008010301703931485
1053922973_1360_I,0.008491766168019504
1053922973_1361_I,0.00977638095630646
1053922973_1362_I,0.012077193075272925
1053922973_1363_I,0.014639840863812247
1053922973_1364_I,0.01628337057059449
1053922973_1365_I,0.017049298487292374
1053922973_1366_I,0.01791454921755345
1053922973_1367_I,0.019840299181798304
1053922973_1368_I,0.023549537085514608
1053922973_1369_I,0.029174791385733385
1053922973_1370_I,0.034973572404743775
1053922973_1371_I,0.04006377422647806
1053922973_1372_I,0.04360217975813538
1053922973_1373_I,0.04613792657110304
1053922973_1374_I,0.049249790263655495
1053922973_1375_I,0.05329862965968576
1053922973_1376_I,0.056936034328584566
1053922973_1377_I,0.059178521895748445
1053922973_1378_I,0.05972899333873545
1053922973_1379_I,0.05941019322299943
1053922973_1380_I,0.0593058367992417
1053922973_1381_I,0.059239586980973404
1053922973_1382_I,0.05886350428515531
1053922973_1383_I,0.059299925272448595
1053922973_1384_I,0.06147701765985111
1053922973_1385_I,0.06505628843560259
1053922973_1386_I,0.06879108235848536
1053922973_1387_I,0.07080223631547362
1053922973_1388_I,0.07212548719346114
1053922973_1389_I,0.0750812335933055
1053922973_1390_I,0.08067181794724497
1053922973_1391_I,0.08771590592562617
1053922973_1392_I,0.09416782881245903
1053922973_1393_I,0.09853233501919341
1053922973_1394_I,0.10215826469739993
1053922973_1395_I,0.10621121249185587
1053922973_1396_I,0.11163765563185221
1053922973_1397_I,0.11871858100548881
1053922973_1398_I,0.12615940415037835
1053922973_1399_I,0.1331314745166766
1053922973_1400_I,0.13871639194853183
1053922973_1401_I,0.14204321366803951
1053922973_1402_I,0.14380092167527264
1053922973_1403_I,0.14450674888482737
1053922973_1404_I,0.14356200790557708
1053922973_1405_I,0.14116195684807598
1053922973_1406_I,0.13856910555090185
1053922973_1407_I,0.13669234451523601
1053922973_1408_I,0.1357065387653919
1053922973_1409_I,0.13440209362949204
1053922973_1410_I,0.13148768838139294
1053922973_1411_I,0.12761776107217787
1053922973_1412_I,0.12479854991707279
1053922973_1413_I,0.12328216145183037
1053922973_1414_I,0.12098467034060291
1053922973_1415_I,0.11494731289947878
1053922973_1416_I,0.10739212633788588
1053922973_1417_I,0.10178054181985582
1053922973_1418_I,0.10046859227060717
1053922973_1419_I,0.10261163287438582
1053922973_1420_I,0.10509832166348665
1053922973_1421_I,0.105944230147072
1053922973_1422_I,0.1076250524651237
1053922973_1423_I,0.11087508086882941
1053922973_1424_I,0.11474505732068237
1053922973_1425_I,0.11785850835738777
1053922973_1426_I,0.11900467761944784
1053922973_1427_I,0.1191058209275738
1053922973_1428_I,0.11908142179261193
1053922973_1429_I,0.11842852674645941
1053922973_1430_I,0.11616383594431061
1053922973_1431_I,0.11243948982014035
1053922973_1432_I,0.10787524576344062
1053922973_1433_I,0.10339088029341745
1053922973_1434_I,0.10002415327397515
1053922973_1435_I,0.09786766569259908
1053922973_1436_I,0.09580662863271845
1053922973_1437_I,0.09253351612148113
1053922973_1438_I,0.08706889099931772
1053922973_1439_I,0.07997879221011191
1053922973_1440_I,0.07265756303216533
1053922973_1441_I,0.0664531730903204
1053922973_1442_I,0.061013297013480315
1053922973_1443_I,0.05561346812208571
1053922973_1444_I,0.0491782437558079
1053922973_1445_I,0.041551137128420804
1053922973_1446_I,0.03346327836558583
1053922973_1447_I,0.02670250582345435
1053922973_1448_I,0.02270156830607337
1053922973_1449_I,0.0208452421094157
1053922973_1450_I,0.01951390190984048
1053922973_1451_I,0.016827247662767292
1053922973_1452_I,0.01194510505451526
1053922973_1453_I,0.0051423288587609224
1053922973_1454_I,-0.000978971228243272
1053922973_1455_I,-0.005074282193515013
1053922973_1456_I,-0.006319532620377556
1053922973_1457_I,-0.006533689954879468
1053922973_1458_I,-0.008398224819531097
1053922973_1459_I,-0.012708395156988746
1053922973_1460_I,-0.01704955417680675
1053922973_1461_I,-0.019032839085206418
1053922973_1462_I,-0.019084656117171545
1053922973_1463_I,-0.019881266036609883
1053922973_1464_I,-0.02280687802310732
1053922973_1465_I,-0.026499789855734632
1053922973_1466_I,-0.02915885882524097
1053922973_1467_I,-0.030040274896910746
1053922973_1468_I,-0.03025203976088416
1053922973_1469_I,-0.03115260557310682
1053922973_1470_I,-0.03341358444337466
1053922973_1471_I,-0.037388380663856795
1053922973_1472_I,-0.04154744995260555
1053922973_1473_I,-0.04498641664973505
1053922973_1474_I,-0.046814147004054375
1053922973_1475_I,-0.047065956467018666
1053922973_1476_I,-0.04659774647440523
1053922973_1477_I,-0.04659300476408985
1053922973_1478_I,-0.04659299257080375
1053922973_1479_I,-0.04659289502451503
1053922973_1480_I,-0.04659282186479848
1053922973_1481_I,-0.04633748854215386
1053922973_1482_I,-0.04640195333723714
1053922973_1483_I,-0.04736816780177445
1053922973_1484_I,-0.04947636442782686
1053922973_1485_I,-0.05226744197698452
1053922973_1486_I,-0.05523648903499318
1053922973_1487_I,-0.05737947421474415
1053922973_1488_I,-0.05865956418541075
1053922973_1489_I,-0.0593678518523012
1053922973_1490_I,-0.05943011077108254
1053922973_1491_I,-0.0586088807595586
1053922973_1492_I,-0.057376895519482635
1053922973_1493_I,-0.05612723001457453
1053922973_1494_I,-0.0550928247823193
1053922973_1495_I,-0.054941859707224976
1053922973_1496_I,-0.055674334789291555
1053922973_1497_I,-0.056898882124851925
1053922973_1498_I,-0.05816044827698498
1053922973_1499_I,-0.059120157438645925
1053922973_1500_I,-0.059424989590924265
1053922973_1501_I,-0.0593813498200041
1053922973_1502_I,-0.05930587337909998
1053922973_1503_I,-0.05930587337909998
1053922973_1504_I,-0.05902642690947634
1053922973_1505_I,-0.05912708507261328
1053922973_1506_I,-0.06022994304349062
1053922973_1507_I,-0.06248341343598094
1053922973_1508_I,-0.06507628948922073
1053922973_1509_I,-0.06719736444234649
1053922973_1510_I,-0.0680354315344947
1053922973_1511_I,-0.06799974991496335
1053922973_1512_I,-0.06768521153746296
1053922973_1513_I,-0.06787474397646354
1053922973_1514_I,-0.06876958485611964
1053922973_1515_I,-0.06996823365202245
1053922973_1516_I,-0.0707648454189284
1053922973_1517_I,-0.07055365770382996
1053922973_1518_I,-0.06950136492087904
1053922973_1519_I,-0.06831381201531916
1053922973_1520_I,-0.06773399687511357
1053922973_1521_I,-0.06767377977751224
1053922973_1522_I,-0.06751260818297258
1053922973_1523_I,-0.06771736560237879
1053922973_1524_I,-0.06904453828456546
1053922973_1525_I,-0.07139879062052121
1053922973_1526_I,-0.07396891584938255
1053922973_1527_I,-0.07579414436309209
1053922973_1528_I,-0.07649806313862675
1053922973_1529_I,-0.07700906269757565
1053922973_1530_I,-0.0779837119601399
1053922973_1531_I,-0.07926078797218086
1053922973_1532_I,-0.08055526269499333
1053922973_1533_I,-0.08082848393782717
1053922973_1534_I,-0.07963246889172006
1053922973_1535_I,-0.07712814528548981
1053922973_1536_I,-0.07499256327786374
1053922973_1537_I,-0.07444591055038438
1053922973_1538_I,-0.07608814998580207
1053922973_1539_I,-0.0789943587591933
1053922973_1540_I,-0.08188389487657577
1053922973_1541_I,-0.08354486319942944
1053922973_1542_I,-0.08441867768095519
1053922973_1543_I,-0.0848272547452191
1053922973_1544_I,-0.08483505844831743
1053922973_1545_I,-0.08458460835200554
1053922973_1546_I,-0.08472127070251498
1053922973_1547_I,-0.08551905302488566
1053922973_1548_I,-0.08671770182078846
1053922973_1549_I,-0.08760678746940956
1053922973_1550_I,-0.0873602879977912
1053922973_1551_I,-0.08645310751261086
1053922973_1552_I,-0.08597300906605856
1053922973_1553_I,-0.08650355113716988
1053922973_1554_I,-0.08739686785606461
1053922973_1555_I,-0.08757438990826542
1053922973_1556_I,-0.08663478747536875
1053922973_1557_I,-0.08543617525932423
1053922973_1558_I,-0.08468898288094565
1053922973_1559_I,-0.0845799992898631
1053922973_1560_I,-0.08472156334138116
1053922973_1561_I,-0.08473173254198116
1053922973_1562_I,-0.08473179350841162
1053922973_1563_I,-0.08473183008826989
1053922973_1564_I,-0.08473184228155599
1053922973_1565_I,-0.0847318300882699
1053922973_1566_I,-0.08473179350841162
1053922973_1567_I,-0.08473173254198117
1053922973_1568_I,-0.08473175692855335
1053922973_1569_I,-0.08473175692855335
1053922973_1570_I,-0.08473175692855335
1053922973_1571_I,-0.08473175692855335
1053922973_1572_I,-0.08469823721559532
1053922973_1573_I,-0.08443005475586525
1053922973_1574_I,-0.08468984490932294
1053922973_1575_I,-0.08601193225222259
1053922973_1576_I,-0.08836810632396501
1053922973_1577_I,-0.09125345571029599
1053922973_1578_I,-0.09415538722672387
1053922973_1579_I,-0.09601398322206207
1053922973_1580_I,-0.09705156646806488
1053922973_1581_I,-0.09752397944944459
1053922973_1582_I,-0.09759984607550362
1053922973_1583_I,-0.09758848193286668
1053922973_1584_I,-0.09752966152076306
1053922973_1585_I,-0.09696194212035987
1053922973_1586_I,-0.09583976961482066
1053922973_1587_I,-0.09456269360277969
1053922973_1588_I,-0.09353026368287122
1053922973_1589_I,-0.09314202945372953
1053922973_1590_I,-0.09315051598084896
1053922973_1591_I,-0.09324942791762023
1053922973_1592_I,-0.09324942791762023
1053922973_1593_I,-0.09359556944520125
1053922973_1594_I,-0.09355174751397675
1053922973_1595_I,-0.09218946186278279
1053922973_1596_I,-0.08896795872815351
1053922973_1597_I,-0.08509799446958664
1053922973_1598_I,-0.08179032544657999
1053922973_1599_I,-0.08025570801863134
1053922973_1600_I,-0.08018857104642653
1053922973_1601_I,-0.08099114791668566
1053922973_1602_I,-0.08062956156005587
1053922973_1603_I,-0.0784801985526922
1053922973_1604_I,-0.07490864317108827
1053922973_1605_I,-0.0714331176768159
1053922973_1606_I,-0.06972638203936592
1053922973_1607_I,-0.07003089384076423
1053922973_1608_I,-0.07078465027148853
1053922973_1609_I,-0.07053630628822875
1053922973_1610_I,-0.06904433580211765
1053922973_1611_I,-0.06634555958120228
1053922973_1612_I,-0.06493419558399799
1053922973_1613_I,-0.06595663698563671
1053922973_1614_I,-0.06979023199723539
1053922973_1615_I,-0.07508960262148623
1053922973_1616_I,-0.07992783646753705
1053922973_1617_I,-0.08289600376147957
1053922973_1618_I,-0.08553949155882905
1053922973_1619_I,-0.08908171876194211
1053922973_1620_I,-0.09332167609365834
1053922973_1621_I,-0.09713324633564124
1053922973_1622_I,-0.09971222980210102
1053922973_1623_I,-0.10148634886393228
1053922973_1624_I,-0.10328804987788871
1053922973_1625_I,-0.10450404528597698
1053922973_1626_I,-0.10405380154617853
1053922973_1627_I,-0.10213270165785661
1053922973_1628_I,-0.0996589643555457
1053922973_1629_I,-0.09771387140563809
1053922973_1630_I,-0.09718738415639236
1053922973_1631_I,-0.09757016096627448
1053922973_1632_I,-0.09779608703881544
1053922973_1633_I,-0.09681493395134887
1053922973_1634_I,-0.09382059543153258
1053922973_1635_I,-0.0899689580514542
1053922973_1636_I,-0.08667385180805662
1053922973_1637_I,-0.08491059179122333
1053922973_1638_I,-0.0837893637111159
1053922973_1639_I,-0.08159188451886253
1053922973_1640_I,-0.0777695010490779
1053922973_1641_I,-0.07365938817347856
1053922973_1642_I,-0.07041315262073423
1053922973_1643_I,-0.06872726898047415
1053922973_1644_I,-0.06832335344643223
1053922973_1645_I,-0.06791240571175738
1053922973_1646_I,-0.06692628663141008
1053922973_1647_I,-0.06483588333520629
1053922973_1648_I,-0.06224300728196649
1053922973_1649_I,-0.060063508013788305
1053922973_1650_I,-0.05910859229153524
1053922973_1651_I,-0.05906341247163241
1053922973_1652_I,-0.059305873379099976
1053922973_1653_I,-0.059305873379099976
1053922973_1654_I,-0.059305873379099976
1053922973_1655_I,-0.059305873379099976
1053922973_1656_I,-0.059305873379099976
1053922973_1657_I,-0.059305873379099976
1053922973_1658_I,-0.059305873379099976
1053922973_1659_I,-0.059384788326681794
1053922973_1660_I,-0.05942327033758541
1053922973_1661_I,-0.05910809827870179
1053922973_1662_I,-0.05813297680342165
1053922973_1663_I,-0.05686628947113032
1053922973_1664_I,-0.05570758588046207
1053922973_1665_I,-0.055056415630051175
1053922973_1666_I,-0.054957211054413715
1053922973_1667_I,-0.05510367680694041
1053922973_1668_I,-0.055110602593440174
1053922973_1669_I,-0.05526009967078783
1053922973_1670_I,-0.05551124441491339
1053922973_1671_I,-0.05482498410409332
1053922973_1672_I,-0.052273151021329796
1053922973_1673_I,-0.04856901545360236
1053922973_1674_I,-0.04499349245060307
1053922973_1675_I,-0.04283029449744818
1053922973_1676_I,-0.04189127143038761
1053922973_1677_I,-0.04062605061786888
1053922973_1678_I,-0.038299838775494026
1053922973_1679_I,-0.0358320274102234
1053922973_1680_I,-0.03423192353761445
1053922973_1681_I,-0.033622685628577446
1053922973_1682_I,-0.032800724389381544
1053922973_1683_I,-0.0316642628305176
1053922973_1684_I,-0.03149521954607234
1053922973_1685_I,-0.03365754734199255
1053922973_1686_I,-0.037250930922660706
1053922973_1687_I,-0.04075831858196976
1053922973_1688_I,-0.04264285671720065
1053922973_1689_I,-0.042857901944626096
1053922973_1690_I,-0.042250585401882236
1053922973_1691_I,-0.042314344094852775
1053922973_1692_I,-0.04289523224423438
1053922973_1693_I,-0.04402398912426281
1053922973_1694_I,-0.045301065136303775
1053922973_1695_I,-0.04632691068172304
1053922973_1696_I,-0.04670197616188631
1053922973_1697_I,-0.0465942063570101
1053922973_1698_I,-0.04632161694809189
1053922973_1699_I,-0.046763920641683894
1053922973_1700_I,-0.0483298511673016
1053922973_1701_I,-0.05082227006187821
1053922973_1702_I,-0.0536719740390426
1053922973_1703_I,-0.05613798560138747
1053922973_1704_I,-0.05816622272168292
1053922973_1705_I,-0.06049827736505654
1053922973_1706_I,-0.06333686476024099
1053922973_1707_I,-0.0662164888445119
1053922973_1708_I,-0.06848649628888993
1053922973_1709_I,-0.07064371214198982
1053922973_1710_I,-0.07371411570588426
1053922973_1711_I,-0.07771333507840696
1053922973_1712_I,-0.08156165625416205
1053922973_1713_I,-0.08439423974917394
1053922973_1714_I,-0.08517375431201901
1053922973_1715_I,-0.08430884831921014
1053922973_1716_I,-0.08290136178698282
1053922973_1717_I,-0.08192531362195975
1053922973_1718_I,-0.0827518321942056
1053922973_1719_I,-0.08332019229636883
1053922973_1720_I,-0.08124512704558715
1053922973_1721_I,-0.07540979055487552
1053922973_1722_I,-0.06701793432561917
1053922973_1723_I,-0.057952869035582485
1053922973_1724_I,-0.05185217892751397
1053922973_1725_I,-0.04830286077429861
1053922973_1726_I,-0.04664670325704816
1053922973_1727_I,-0.046159451785482586
1053922973_1728_I,-0.04650994114328891
1053922973_1729_I,-0.04659300476408985
1053922973_1730_I,-0.04659285844465675
1053922973_1731_I,-0.046592712125223666
1053922973_1732_I,-0.04659269993193757
1053922973_1733_I,-0.04659273651179584
1053922973_1734_I,-0.04659284625137066
1053922973_1735_I,-0.0465929194110872
1053922973_1736_I,-0.046592955990945484
1053922973_1737_I,-0.046592931604373305
1053922973_1738_I,-0.0465929316043733
1053922973_1739_I,-0.0465929316043733
1053922973_1740_I,-0.0465929316043733
1053922973_1741_I,-0.0465929316043733
1053922973_1742_I,-0.0465929316043733
1053922973_1743_I,-0.04666321370540259
1053922973_1744_I,-0.046714644986135
1053922973_1745_I,-0.04642539585348112
1053922973_1746_I,-0.04534771664888846
1053922973_1747_I,-0.04414910443284393
1053922973_1748_I,-0.043703597599945146
1053922973_1749_I,-0.044353913211849116
1053922973_1750_I,-0.04476368410966941
1053922973_1751_I,-0.04329889763116469
1053922973_1752_I,-0.0399803884073295
1053922973_1753_I,-0.03635792273085344
1053922973_1754_I,-0.03396408655432365
1053922973_1755_I,-0.033450638361831556
1053922973_1756_I,-0.033788059842389834
1053922973_1757_I,-0.033879989829646615
1053922973_1758_I,-0.033879989829646615
1053922973_1759_I,-0.033879989829646615
1053922973_1760_I,-0.033879989829646615
1053922973_1761_I,-0.03378302881864992
1053922973_1762_I,-0.03377159151629644
1053922973_1763_I,-0.034163203285685374
1053922973_1764_I,-0.035331941950806627
1053922973_1765_I,-0.036497290882394534
1053922973_1766_I,-0.03687100290780169
1053922973_1767_I,-0.03624781624896995
1053922973_1768_I,-0.035374094140823674
1053922973_1769_I,-0.0352621110013627
1053922973_1770_I,-0.036231172413455554
1053922973_1771_I,-0.03749723788815623
1053922973_1772_I,-0.03826406145714153
1053922973_1773_I,-0.03807276099165773
1053922973_1774_I,-0.03713642635943348
1053922973_1775_I,-0.03583262266428075
1053922973_1776_I,-0.034110357583766404
1053922973_1777_I,-0.03229596003354744
1053922973_1778_I,-0.030885184639517185
1053922973_1779_I,-0.029971285653700625
1053922973_1780_I,-0.02958000310303615
1053922973_1781_I,-0.029695132849295668
1053922973_1782_I,-0.030102690111450142
1053922973_1783_I,-0.029520959516847703
1053922973_1784_I,-0.027017164286348063
1053922973_1785_I,-0.023371860585023305
1053922973_1786_I,-0.020125121043120538
1053922973_1787_I,-0.018766623439472226
1053922973_1788_I,-0.019222180126564733
1053922973_1789_I,-0.020048796245099296
1053922973_1790_I,-0.019571092855530117
1053922973_1791_I,-0.01760650394964334
1053922973_1792_I,-0.014200090370429033
1053922973_1793_I,-0.011550145304360514
1053922973_1794_I,-0.01064942393536681
1053922973_1795_I,-0.011877128593037746
1053922973_1796_I,-0.014310834967617958
1053922973_1797_I,-0.01642966894255757
1053922973_1798_I,-0.01712980779940398
1053922973_1799_I,-0.017641538955518343
1053922973_1800_I,-0.01861941943889674
1053922973_1801_I,-0.019896507644223804
1053922973_1802_I,-0.020915805395012123
1053922973_1803_I,-0.021277763092627425
1053922973_1804_I,-0.02130912422445382
1053922973_1805_I,-0.02129902818357036
1053922973_1806_I,-0.021071379532248895
1053922973_1807_I,-0.020593465900868017
1053922973_1808_I,-0.01929677754238973
1053922973_1809_I,-0.016793637423897355
1053922973_1810_I,-0.013170840311735722
1053922973_1811_I,-0.008375337282551003
1053922973_1812_I,-0.0018651094270719826
1053922973_1813_I,0.00438918837373098
1053922973_1814_I,0.008733552010829843
1053922973_1815_I,0.010716764129006478
1053922973_1816_I,0.00796936182214671
1053922973_1817_I,-0.00023151429250586588
1053922973_1818_I,-0.011031190549970954
1053922973_1819_I,-0.02156195275054051
1053922973_1820_I,-0.029410633925308093
1053922973_1821_I,-0.033107736922909095
1053922973_1822_I,-0.034849598461639486
1053922973_1823_I,-0.037136883422915164
1053922973_1824_I,-0.04071616823942031
1053922973_1825_I,-0.04547966167565468
1053922973_1826_I,-0.049956028350002096
1053922973_1827_I,-0.05346668159302246
1053922973_1828_I,-0.05537478602482585
1053922973_1829_I,-0.05543439715305781
1053922973_1830_I,-0.05410420940376497
1053922973_1831_I,-0.05283489645053535
1053922973_1832_I,-0.051650269933637354
1053922973_1833_I,-0.05092142845082594
1053922973_1834_I,-0.05077049995558988
1053922973_1835_I,-0.05089118910131992
1053922973_1836_I,-0.050915331807780365
1053922973_1837_I,-0.0508832390787885
1053922973_1838_I,-0.05077452373999995
1053922973_1839_I,-0.05094922914311372
1053922973_1840_I,-0.05171365063473907
1053922973_1841_I,-0.052910104639145465
1053922973_1842_I,-0.05413904155769864
1053922973_1843_I,-0.055000911791764334
1053922973_1844_I,-0.055240583023171655
1053922973_1845_I,-0.055164350598529886
1053922973_1846_I,-0.055110602593440174
1053922973_1847_I,-0.055102991026971165
1053922973_1848_I,-0.05463901801652763
1053922973_1849_I,-0.05489962179471177
1053922973_1850_I,-0.05681297007852139
1053922973_1851_I,-0.06030427737993086
1053922973_1852_I,-0.06416278733944242
1053922973_1853_I,-0.0670331556110896
1053922973_1854_I,-0.068088057018277
1053922973_1855_I,-0.06844307267167775
1053922973_1856_I,-0.06917497762524619
1053922973_1857_I,-0.07096922004305002
1053922973_1858_I,-0.07379590752999655
1053922973_1859_I,-0.07669137401834152
1053922973_1860_I,-0.0790955090876961
1053922973_1861_I,-0.08050351106338091
1053922973_1862_I,-0.08082754320733057
1053922973_1863_I,-0.08059139509661654
1053922973_1864_I,-0.08053648614289353
1053922973_1865_I,-0.08053648614289353
1053922973_1866_I,-0.08053648614289353
1053922973_1867_I,-0.08053648614289353
1053922973_1868_I,-0.08053648614289353
1053922973_1869_I,-0.08053648614289353
1053922973_1870_I,-0.08053648614289353
1053922973_1871_I,-0.08053648614289353
1053922973_1872_I,-0.08053648614289353
1053922973_1873_I,-0.08071002616345181
1053922973_1874_I,-0.08076817816178153
1053922973_1875_I,-0.08008832708552317
1053922973_1876_I,-0.07804860056428821
1053922973_1877_I,-0.07545686329007062
1053922973_1878_I,-0.07312432202373391
1053922973_1879_I,-0.07186218352614163
1053922973_1880_I,-0.07170072446564504
1053922973_1881_I,-0.07201807247185565
1053922973_1882_I,-0.07201881515382667
1053922973_1883_I,-0.07201881515382667
1053922973_1884_I,-0.07201881515382667
1053922973_1885_I,-0.07201881515382667
1053922973_1886_I,-0.07201881515382667
1053922973_1887_I,-0.07201881515382667
1053922973_1888_I,-0.07189422193958635
1053922973_1889_I,-0.07160579529950335
1053922973_1890_I,-0.07221715927424244
1053922973_1891_I,-0.07465681412496754
1053922973_1892_I,-0.07832355694868216
1053922973_1893_I,-0.0820864419857578
1053922973_1894_I,-0.08493069223859778
1053922973_1895_I,-0.08509774025804633
1053922973_1896_I,-0.08268496162682719
1053922973_1897_I,-0.07896083830724823
1053922973_1898_I,-0.07485195732303762
1053922973_1899_I,-0.0714157743900721
1053922973_1900_I,-0.06913053863984678
1053922973_1901_I,-0.06709605449264396
1053922973_1902_I,-0.06443572148581284
1053922973_1903_I,-0.06082833114486763
1053922973_1904_I,-0.05618457540855465
1053922973_1905_I,-0.05164416885666957
1053922973_1906_I,-0.0478402353067149
1053922973_1907_I,-0.045093376155326464
1053922973_1908_I,-0.04269507206317807
1053922973_1909_I,-0.03933935114715385
1053922973_1910_I,-0.035212306600589674
1053922973_1911_I,-0.03167380167517604
1053922973_1912_I,-0.029638125911377964
1053922973_1913_I,-0.029236708153517123
1053922973_1914_I,-0.029881976114472877
1053922973_1915_I,-0.029877296479068508
1053922973_1916_I,-0.02880711651491541
1053922973_1917_I,-0.026406793140691616
1053922973_1918_I,-0.024206003656011277
1053922973_1919_I,-0.02341952192339244
1053922973_1920_I,-0.02493317909255043
1053922973_1921_I,-0.028155068347905945
1053922973_1922_I,-0.03182716919712384
1053922973_1923_I,-0.03528135089833396
1053922973_1924_I,-0.03922302387240278
1053922973_1925_I,-0.04371964544241515
1053922973_1926_I,-0.04867485982775672
1053922973_1927_I,-0.053947247818368446
1053922973_1928_I,-0.05883404198051748
1053922973_1929_I,-0.06324580862515405
1053922973_1930_I,-0.06711282765088963
1053922973_1931_I,-0.07052234312818682
1053922973_1932_I,-0.07478708128166893
1053922973_1933_I,-0.0776398812450199
1053922973_1934_I,-0.07708900446764375
1053922973_1935_I,-0.07267794170815879
1053922973_1936_I,-0.0655837160458514
1053922973_1937_I,-0.05777732414319602
1053922973_1938_I,-0.05202377430368745
1053922973_1939_I,-0.047071089840463036
1053922973_1940_I,-0.042266717858367844
1053922973_1941_I,-0.03727569696468587
1053922973_1942_I,-0.03277287122901422
1053922973_1943_I,-0.0276813673121228
1053922973_1944_I,-0.02137713689629609
1053922973_1945_I,-0.013838492190006655
1053922973_1946_I,-0.0005139447917801718
1053922973_1947_I,0.020999001294492482
1053922973_1948_I,0.048703344822039675
1053922973_1949_I,0.07976094917776883
1053922973_1950_I,0.11021673283733953
1053922973_1951_I,0.13596432737246303
1053922973_1952_I,0.15808306768818575
1053922973_1953_I,0.18021384795018966
1053922973_1954_I,0.206248184604448
1053922973_1955_I,0.23849121395256734
1053922973_1956_I,0.2763336182749108
1053922973_1957_I,0.31765774967073135
1053922973_1958_I,0.3572018205489525
1053922973_1959_I,0.39107478926277184
1053922973_1960_I,0.4178727489331633
1053922973_1961_I,0.4415144742819036
1053922973_1962_I,0.46528854777483836
1053922973_1963_I,0.49302231924412626
1053922973_1964_I,0.5248135282236062
1053922973_1965_I,0.5602318788200313
1053922973_1966_I,0.5902106844058086
1053922973_1967_I,0.6111970013573247
1053922973_1968_I,0.6218316706775342
1053922973_1969_I,0.6224371334712986
1053922973_1970_I,0.6191927660777808
1053922973_1971_I,0.6128456374645246
1053922973_1972_I,0.5956922822127175
1053922973_1973_I,0.5652623582959849
1053922973_1974_I,0.5235774733819241
1053922973_1975_I,0.4741271438368627
1053922973_1976_I,0.42780303761094074
1053922973_1977_I,0.3874592301591327
1053922973_1978_I,0.35496624657500236
1053922973_1979_I,0.3233826715219654
1053922973_1980_I,0.28719258789618235
1053922973_1981_I,0.24146257182303704
1053922973_1982_I,0.18710565989047495
1053922973_1983_I,0.12358378898682792
1053922973_1984_I,0.07061064173314957
1053922973_1985_I,0.034517537593039084
1053922973_1986_I,0.01815143188138109
1053922973_1987_I,0.018044625346106055
1053922973_1988_I,0.025366074372695814
1053922973_1989_I,0.025926347000738967
1053922973_1990_I,0.025974147638164354
1053922973_1991_I,0.025448979111284045
1053922973_1992_I,0.020992089179252875
1053922973_1993_I,0.009681124049414392
1053922973_1994_I,-0.005875790119026817
1053922973_1995_I,-0.02206939260893782
1053922973_1996_I,-0.034801712101717945
1053922973_1997_I,-0.04315082014791285
1053922973_1998_I,-0.050973109509176454
1053922973_1999_I,-0.05979664021199498
1053922973_2000_I,-0.06709109810659468
1053922973_2001_I,-0.07118502753560292
1053922973_2002_I,-0.07292023080114053
1053922973_2003_I,-0.07452827361147535
1053922973_2004_I,-0.07788563803466725
1053922973_2005_I,-0.08201621715622379
1053922973_2006_I,-0.08569772050699202
1053922973_2007_I,-0.08772359951965615
1053922973_2008_I,-0.08844803035834424
1053922973_2009_I,-0.08878148717345531
1053922973_2010_I,-0.08951997539303241
1053922973_2011_I,-0.0914211034177241
1053922973_2012_I,-0.09401399129475646
1053922973_2013_I,-0.09656081958781984
1053922973_2014_I,-0.097971551381615
1053922973_2015_I,-0.09724673257473308
1053922973_2016_I,-0.09408004343399268
1053922973_2017_I,-0.09027714261842058
1053922973_2018_I,-0.08661602607250321
1053922973_2019_I,-0.08438920576948589
1053922973_2020_I,-0.08451976925998864
1053922973_2021_I,-0.0863155221672937
1053922973_2022_I,-0.08896668767045188
1053922973_2023_I,-0.09290914803520738
1053922973_2024_I,-0.09773858276262262
1053922973_2025_I,-0.10194746014707957
1053922973_2026_I,-0.10528818258222465
1053922973_2027_I,-0.10656773604830323
1053922973_2028_I,-0.10532909438250206
1053922973_2029_I,-0.10200532467945235
1053922973_2030_I,-0.09781341961024721
1053922973_2031_I,-0.09328864965454671
1053922973_2032_I,-0.08935182258796531
1053922973_2033_I,-0.08556146607732636
1053922973_2034_I,-0.0810351996728783
1053922973_2035_I,-0.07664602644838156
1053922973_2036_I,-0.07337715387526228
1053922973_2037_I,-0.07176297784202361
1053922973_2038_I,-0.07157970905713869
1053922973_2039_I,-0.07201881515382667
1053922973_2040_I,-0.07201881515382667
1053922973_2041_I,-0.07195060591143287
1053922973_2042_I,-0.07189606534274723
1053922973_2043_I,-0.07217912028606681
1053922973_2044_I,-0.07324531341516162
1053922973_2045_I,-0.07444392563120615
1053922973_2046_I,-0.07496063090905865
1053922973_2047_I,-0.07439113572280837
1053922973_2048_I,-0.07373005565624705
1053922973_2049_I,-0.07418063896058844
1053922973_2050_I,-0.07628062765763394
1053922973_2051_I,-0.07931995829464596
1053922973_2052_I,-0.082361661080043
1053922973_2053_I,-0.08340643725635902
1053922973_2054_I,-0.08185191410411984
1053922973_2055_I,-0.07859606913345513
1053922973_2056_I,-0.07494602335232148
1053922973_2057_I,-0.07242640603989127
1053922973_2058_I,-0.0716098988945133
1053922973_2059_I,-0.07133602217017869
1053922973_2060_I,-0.07032448452225358
1053922973_2061_I,-0.06833653993109952
1053922973_2062_I,-0.06550095577922867
1053922973_2063_I,-0.06253809884612561
1053922973_2064_I,-0.05964647545986045
1053922973_2065_I,-0.05736123638419348
1053922973_2066_I,-0.05596620215301336
1053922973_2067_I,-0.0557588176346948
1053922973_2068_I,-0.055238400424961344
1053922973_2069_I,-0.053337887976470516
1053922973_2070_I,-0.049849977428971216
1053922973_2071_I,-0.04653721013440441
1053922973_2072_I,-0.045308959365314
1053922973_2073_I,-0.04675215338161891
1053922973_2074_I,-0.04915470406276869
1053922973_2075_I,-0.05079723392009145
1053922973_2076_I,-0.051311349417876906
1053922973_2077_I,-0.05178126203662088
1053922973_2078_I,-0.052989336612165656
1053922973_2079_I,-0.05466959582209605
1053922973_2080_I,-0.05652626749519297
1053922973_2081_I,-0.05798763283321534
1053922973_2082_I,-0.058960437584138166
1053922973_2083_I,-0.059402175952647754
1053922973_2084_I,-0.059426977096557115
1053922973_2085_I,-0.059305873379099976
1053922973_2086_I,-0.059305873379099976
1053922973_2087_I,-0.059305873379099976
1053922973_2088_I,-0.059305873379099976
1053922973_2089_I,-0.059305873379099976
1053922973_2090_I,-0.059305873379099976
1053922973_2091_I,-0.059305873379099976
1053922973_2092_I,-0.059305873379099976
1053922973_2093_I,-0.059305873379099976
1053922973_2094_I,-0.059305873379099976
1053922973_2095_I,-0.059305873379099976
1053922973_2096_I,-0.059305873379099976
1053922973_2097_I,-0.059305873379099976
1053922973_2098_I,-0.059305873379099976
1053922973_2099_I,-0.059305873379099976
1053922973_2100_I,-0.059305873379099976
1053922973_2101_I,-0.059305873379099976
1053922973_2102_I,-0.059305873379099976
1053922973_2103_I,-0.059305873379099976
1053922973_2104_I,-0.059305873379099976
1053922973_2105_I,-0.059305873379099976
1053922973_2106_I,-0.059305873379099976
1053922973_2107_I,-0.059305873379099976
1053922973_2108_I,-0.059305873379099976
1053922973_2109_I,-0.059305873379099976
1053922973_2110_I,-0.059201962195031335
1053922973_2111_I,-0.059200950152285776
1053922973_2112_I,-0.05960924233704738
1053922973_2113_I,-0.06065170733140885
1053922973_2114_I,-0.061928795536735914
1053922973_2115_I,-0.06313011466229268
1053922973_2116_I,-0.06370091896407691
1053922973_2117_I,-0.06341301404884121
1053922973_2118_I,-0.06272157491687406
1053922973_2119_I,-0.06117676390175324
1053922973_2120_I,-0.058336187892455385
1053922973_2121_I,-0.05437186237928387
1053922973_2122_I,-0.04952998532714641
1053922973_2123_I,-0.0439319102311183
1053922973_2124_I,-0.0390650798037421
1053922973_2125_I,-0.03523985973222046
1053922973_2126_I,-0.032533590182761814
1053922973_2127_I,-0.030135359989317
1053922973_2128_I,-0.026707435605970345
1053922973_2129_I,-0.022648784309571884
1053922973_2130_I,-0.01948463765372824
1053922973_2131_I,-0.018258793395919997
1053922973_2132_I,-0.019491574525033546
1053922973_2133_I,-0.022574438518832583
1053922973_2134_I,-0.025562684090538492
1053922973_2135_I,-0.02800041240206119
1053922973_2136_I,-0.029410308032025288
1053922973_2137_I,-0.0299880857849731
1053922973_2138_I,-0.030549832692152737
1053922973_2139_I,-0.03165988507131736
1053922973_2140_I,-0.032861072287688226
1053922973_2141_I,-0.033460114392591944
1053922973_2142_I,-0.03395787425980697
1053922973_2143_I,-0.035282739085480755
1053922973_2144_I,-0.03760481223096146
1053922973_2145_I,-0.040152211391510026
1053922973_2146_I,-0.04237327609399881
1053922973_2147_I,-0.04280061530011533
1053922973_2148_I,-0.0415057060529258
1053922973_2149_I,-0.039079168961073656
1053922973_2150_I,-0.036194795776616995
1053922973_2151_I,-0.03350339944973491
1053922973_2152_I,-0.03145298939292301
1053922973_2153_I,-0.029199172046019364
1053922973_2154_I,-0.026414573565698315
1053922973_2155_I,-0.023700118256843823
1053922973_2156_I,-0.02186190611040833
1053922973_2157_I,-0.021043037162463852
1053922973_2158_I,-0.020680075920453896
1053922973_2159_I,-0.020078208668112215
1053922973_2160_I,-0.01818241539083217
1053922973_2161_I,-0.015009723088906236
1053922973_2162_I,-0.010848881709245575
1053922973_2163_I,-0.005862246703621227
1053922973_2164_I,-0.0005217351931118565
1053922973_2165_I,0.004309688148416788
1053922973_2166_I,0.008261096907189102
1053922973_2167_I,0.012034108283616661
1053922973_2168_I,0.016919157697374114
1053922973_2169_I,0.023730908151691526
1053922973_2170_I,0.03268730502861645
1053922973_2171_I,0.04345225924121619
1053922973_2172_I,0.05386336687790586
1053922973_2173_I,0.06185414491384433
1053922973_2174_I,0.06674021597717882
1053922973_2175_I,0.0685514107575845
1053922973_2176_I,0.06806098090277785
1053922973_2177_I,0.06745227617288717
1053922973_2178_I,0.06831357701744177
1053922973_2179_I,0.07056526423421465
1053922973_2180_I,0.07456879929102656
1053922973_2181_I,0.08034835556229993
1053922973_2182_I,0.0869515439224572
1053922973_2183_I,0.09249274879316924
1053922973_2184_I,0.0962899660594488
1053922973_2185_I,0.09786918172450308
1053922973_2186_I,0.09785981986723971
1053922973_2187_I,0.09744469870328003
1053922973_2188_I,0.09744480844285486
1053922973_2189_I,0.09733481280902674
1053922973_2190_I,0.09734311643685481
1053922973_2191_I,0.09780027931226967
1053922973_2192_I,0.09897535848615832
1053922973_2193_I,0.10010101827151958
1053922973_2194_I,0.10018283706865869
1053922973_2195_I,0.09947910710431167
1053922973_2196_I,0.09938460248622207
1053922973_2197_I,0.10102929720606628
1053922973_2198_I,0.1049598561846098
1053922973_2199_I,0.11013036594448845
1053922973_2200_I,0.11533330467246024
1053922973_2201_I,0.1206443875022419
1053922973_2202_I,0.12676942095175112
1053922973_2203_I,0.13295905221401003
1053922973_2204_I,0.13850776999642178
1053922973_2205_I,0.14300518191306896
1053922973_2206_I,0.14681353940891362
1053922973_2207_I,0.15119020158289384
1053922973_2208_I,0.1556242948733503
1053922973_2209_I,0.15871829577127278
1053922973_2210_I,0.15974149722107783
1053922973_2211_I,0.15841530665266176
1053922973_2212_I,0.1556301834915453
1053922973_2213_I,0.1525871701126402
1053922973_2214_I,0.1486912430225437
1053922973_2215_I,0.14395108384095254
1053922973_2216_I,0.139709407625391
1053922973_2217_I,0.13698589233547728
1053922973_2218_I,0.13560399396835246
1053922973_2219_I,0.13425366734435928
1053922973_2220_I,0.13144060271392471
1053922973_2221_I,0.12757060224499306
1053922973_2222_I,0.12440507109693782
1053922973_2223_I,0.12282160847338863
1053922973_2224_I,0.12196329978734212
1053922973_2225_I,0.1204865106814015
1053922973_2226_I,0.11783127520714348
1053922973_2227_I,0.11512691630866598
1053922973_2228_I,0.1128688298336564
1053922973_2229_I,0.11048270129191025
1053922973_2230_I,0.10698806559289142
1053922973_2231_I,0.10276343485229822
1053922973_2232_I,0.09901625957112371
1053922973_2233_I,0.09629212685754154
1053922973_2234_I,0.09335181309345988
1053922973_2235_I,0.08887551034149108
1053922973_2236_I,0.08202076820788391
1053922973_2237_I,0.07342600904718778
1053922973_2238_I,0.06436490657513069
1053922973_2239_I,0.056933940778312084
1053922973_2240_I,0.05187213416393589
1053922973_2241_I,0.04851513516983322
1053922973_2242_I,0.04538804612738164
1053922973_2243_I,0.04082480081166082
1053922973_2244_I,0.03548598490690515
1053922973_2245_I,0.031226254499071338
1053922973_2246_I,0.029301444526336057
1053922973_2247_I,0.029205008935121835
1053922973_2248_I,0.029832306578833886
1053922973_2249_I,0.029698387717694962
1053922973_2250_I,0.029176875329174415
1053922973_2251_I,0.028046545515240242
1053922973_2252_I,0.026081344358594275
1053922973_2253_I,0.022948934609484738
1053922973_2254_I,0.020165209611840037
1053922973_2255_I,0.01854140051309586
1053922973_2256_I,0.018533852869005447
1053922973_2257_I,0.01965738991410632
1053922973_2258_I,0.021103728320248673
1053922973_2259_I,0.021366713114662244
1053922973_2260_I,0.021060747725764467
1053922973_2261_I,0.02019115507717439
1053922973_2262_I,0.017606578587333954
1053922973_2263_I,0.012471487367601914
1053922973_2264_I,0.0057046470029192544
1053922973_2265_I,-0.0018118746484786473
1053922973_2266_I,-0.00867567787162559
1053922973_2267_I,-0.013548822204235882
1053922973_2268_I,-0.016744689139605334
1053922973_2269_I,-0.019196756016584163
1053922973_2270_I,-0.021336682159500336
1053922973_2271_I,-0.023856441357441416
1053922973_2272_I,-0.02681927353447878
1053922973_2273_I,-0.029482319732211937
1053922973_2274_I,-0.03163817991359459
1053922973_2275_I,-0.03369778259963866
1053922973_2276_I,-0.03601266059784504
1053922973_2277_I,-0.03923003316443759
1053922973_2278_I,-0.04351638668871761
1053922973_2279_I,-0.04814385810670911
1053922973_2280_I,-0.05205188204508862
1053922973_2281_I,-0.05412957180832805
1053922973_2282_I,-0.05525072672871893
1053922973_2283_I,-0.05676712849572798
1053922973_2284_I,-0.05988933615931442
1053922973_2285_I,-0.06464660215179788
1053922973_2286_I,-0.07040067815007596
1053922973_2287_I,-0.07527497271600751
1053922973_2288_I,-0.07929352509786797
1053922973_2289_I,-0.08222565421103435
1053922973_2290_I,-0.08386712473044126
1053922973_2291_I,-0.08448935033663292
1053922973_2292_I,-0.08483872862743086
1053922973_2293_I,-0.084831522395351
1053922973_2294_I,-0.08473175692855335
1053922973_2295_I,-0.08473175692855335
1053922973_2296_I,-0.08473175692855335
1053922973_2297_I,-0.08473175692855335
1053922973_2298_I,-0.08473175692855335
1053922973_2299_I,-0.08473175692855335
1053922973_2300_I,-0.08473175692855335
1053922973_2301_I,-0.08483032745331406
1053922973_2302_I,-0.08483932609844932
1053922973_2303_I,-0.08445245751734984
1053922973_2304_I,-0.08342071042146247
1053922973_2305_I,-0.0821436344094215
1053922973_2306_I,-0.08102077907986119
1053922973_2307_I,-0.08045169403141579
1053922973_2308_I,-0.08039236150129633
1053922973_2309_I,-0.08085083866515444
1053922973_2310_I,-0.08069777191093022
1053922973_2311_I,-0.0795244275091082
1053922973_2312_I,-0.07725455271290307
1053922973_2313_I,-0.07437623220176336
1053922973_2314_I,-0.07167872556057553
1053922973_2315_I,-0.06962031227416562
1053922973_2316_I,-0.06737528998146887
1053922973_2317_I,-0.06459475814680599
1053922973_2318_I,-0.06187299942907641
1053922973_2319_I,-0.05989331745196993
1053922973_2320_I,-0.05909160963046493
1053922973_2321_I,-0.059097476818035864
1053922973_2322_I,-0.05930587337909998
1053922973_2323_I,-0.05930587337909998
1053922973_2324_I,-0.05930587337909998
1053922973_2325_I,-0.05930587337909998
1053922973_2326_I,-0.05930587337909998
1053922973_2327_I,-0.05930587337909998
1053922973_2328_I,-0.05930587337909998
1053922973_2329_I,-0.05930587337909998
1053922973_2330_I,-0.05930587337909998
1053922973_2331_I,-0.059315725554261615
1053922973_2332_I,-0.05945780172379551
1053922973_2333_I,-0.05934986675531679
1053922973_2334_I,-0.058685405823066555
1053922973_2335_I,-0.05752223948968895
1053922973_2336_I,-0.05625991735381825
1053922973_2337_I,-0.055297989014088715
1053922973_2338_I,-0.054991669280907256
1053922973_2339_I,-0.05496852642390628
1053922973_2340_I,-0.054986816353042985
1053922973_2341_I,-0.05526365272045609
1053922973_2342_I,-0.05618127065853044
1053922973_2343_I,-0.0574287901450865
1053922973_2344_I,-0.05860666158149001
1053922973_2345_I,-0.0593153353691067
1053922973_2346_I,-0.05945287563621469
1053922973_2347_I,-0.05932557772942325
1053922973_2348_I,-0.059305873379099976
1053922973_2349_I,-0.059342428850801196
1053922973_2350_I,-0.059444450075525714
1053922973_2351_I,-0.05925638083085607
1053922973_2352_I,-0.058364222474140005
1053922973_2353_I,-0.0571655736782372
1053922973_2354_I,-0.05625609789932358
1053922973_2355_I,-0.05583560910302918
1053922973_2356_I,-0.057613724606750176
1053922973_2357_I,-0.06187278770929065
1053922973_2358_I,-0.06832484730872515
1053922973_2359_I,-0.07685215394975217
1053922973_2360_I,-0.08705333569170708
1053922973_2361_I,-0.09646381682405562
1053922973_2362_I,-0.10500519082229663
1053922973_2363_I,-0.11178119056179485
1053922973_2364_I,-0.11603119146631498
1053922973_2365_I,-0.11807680549726439
1053922973_2366_I,-0.1190312438338923
1053922973_2367_I,-0.1191060045658522
1053922973_2368_I,-0.11905485446968694
1053922973_2369_I,-0.11824207994782693
1053922973_2370_I,-0.1155005987745917
1053922973_2371_I,-0.11173334115122509
1053922973_2372_I,-0.10824933430274254
1053922973_2373_I,-0.10623353839868874
1053922973_2374_I,-0.10533614247135625
1053922973_2375_I,-0.10400710643335875
1053922973_2376_I,-0.1015964394575945
1053922973_2377_I,-0.09915115906805916
1053922973_2378_I,-0.0975509022251338
1053922973_2379_I,-0.0971641629667656
1053922973_2380_I,-0.09768616715115848
1053922973_2381_I,-0.09776142854683517
1053922973_2382_I,-0.09651442487323011
1053922973_2383_I,-0.09335056272739527
1053922973_2384_I,-0.0894805984688284
1053922973_2385_I,-0.08611528845702732
1053922973_2386_I,-0.08446538905148977
1053922973_2387_I,-0.08431780890651304
1053922973_2388_I,-0.08488656288876638
1053922973_2389_I,-0.08479584484024834
1053922973_2390_I,-0.08415740438051658
1053922973_2391_I,-0.08300294405340805
1053922973_2392_I,-0.08173201345755701
1053922973_2393_I,-0.0810409874193429
1053922973_2394_I,-0.08059055302088922
1053922973_2395_I,-0.07945254254519818
1053922973_2396_I,-0.07724613269461686
1053922973_2397_I,-0.07465328139744276
1053922973_2398_I,-0.07269833405541243
1053922973_2399_I,-0.07188946988345248
1053922973_2400_I,-0.07130334859737666
1053922973_2401_I,-0.07022216807220825
1053922973_2402_I,-0.06938201186370976
1053922973_2403_I,-0.07000022144485522
1053922973_2404_I,-0.07203276722906307
1053922973_2405_I,-0.07447671522497279
1053922973_2406_I,-0.07621456332511162
1053922973_2407_I,-0.07661882987799556
1053922973_2408_I,-0.07632107204861117
1053922973_2409_I,-0.07623528008767397
1053922973_2410_I,-0.07660269040113311
1053922973_2411_I,-0.07737130527469327
1053922973_2412_I,-0.07890515120017651
1053922973_2413_I,-0.08133971369123773
1053922973_2414_I,-0.08424975891582545
1053922973_2415_I,-0.08718783022374692
1053922973_2416_I,-0.08979740849247694
1053922973_2417_I,-0.09174113246890069
1053922973_2418_I,-0.09340676343045688
1053922973_2419_I,-0.09503040367066339
1053922973_2420_I,-0.09638217575329865
1053922973_2421_I,-0.09722712170626985
1053922973_2422_I,-0.09755926681939232
1053922973_2423_I,-0.09752927133560814
1053922973_2424_I,-0.09744469870328004
1053922973_2425_I,-0.09744469870328004
1053922973_2426_I,-0.09783424315643625
1053922973_2427_I,-0.0977252429381454
1053922973_2428_I,-0.0962322312193008
1053922973_2429_I,-0.09301686056858831
1053922973_2430_I,-0.08894036679970334
1053922973_2431_I,-0.08490721092553441
1053922973_2432_I,-0.08233367933593143
1053922973_2433_I,-0.0810771279498235
1053922973_2434_I,-0.08060893864884705
1053922973_2435_I,-0.08040118944042632
1053922973_2436_I,-0.08049337068327529
1053922973_2437_I,-0.08053648614289353
1053922973_2438_I,-0.0805233417804873
1053922973_2439_I,-0.08038620389182032
1053922973_2440_I,-0.08050403980860503
1053922973_2441_I,-0.08118325461702554
1053922973_2442_I,-0.08235132265141178
1053922973_2443_I,-0.08360869431312948
1053922973_2444_I,-0.08471101614891233
1053922973_2445_I,-0.08493160488758703
1053922973_2446_I,-0.08427024105000394
1053922973_2447_I,-0.08305249756808242
1053922973_2448_I,-0.08177539716946927
1053922973_2449_I,-0.08076581746769558
1053922973_2450_I,-0.08042330806139564
1053922973_2451_I,-0.08055994306938474
1053922973_2452_I,-0.08079949458489227
1053922973_2453_I,-0.08030754204729829
1053922973_2454_I,-0.07854966333405987
1053922973_2455_I,-0.07605187532917446
1053922973_2456_I,-0.07362538479350558
1053922973_2457_I,-0.07208139848791673
1053922973_2458_I,-0.07173204088875577
1053922973_2459_I,-0.07206634975591915
1053922973_2460_I,-0.07212021452096054
1053922973_2461_I,-0.07168398751776414
1053922973_2462_I,-0.07062756121082832
1053922973_2463_I,-0.06935048519878734
1053922973_2464_I,-0.0684473868779929
1053922973_2465_I,-0.06795355509636682
1053922973_2466_I,-0.06714734869128122
1053922973_2467_I,-0.0651944006786763
1053922973_2468_I,-0.0626015246254365
1053922973_2469_I,-0.06031171232849831
1053922973_2470_I,-0.05913617054872524
1053922973_2471_I,-0.05900825595725241
1053922973_2472_I,-0.059305873379099976
1053922973_2473_I,-0.059305873379099976
1053922973_2474_I,-0.0593723999480132
1053922973_2475_I,-0.05942946452691971
1053922973_2476_I,-0.05915148199061404
1053922973_2477_I,-0.05823204725291211
1053922973_2478_I,-0.0569839059087654
1053922973_2479_I,-0.05580660755680817
1053922973_2480_I,-0.0550997017956747
1053922973_2481_I,-0.05496336866388973
1053922973_2482_I,-0.055091312814844
1053922973_2483_I,-0.055110602593440174
1053922973_2484_I,-0.055110602593440174
1053922973_2485_I,-0.055110602593440174
1053922973_2486_I,-0.055110602593440174
1053922973_2487_I,-0.055110602593440174
1053922973_2488_I,-0.055110602593440174
1053922973_2489_I,-0.055110602593440174
1053922973_2490_I,-0.055110602593440174
1053922973_2491_I,-0.055110602593440174
1053922973_2492_I,-0.055110602593440174
1053922973_2493_I,-0.055110602593440174
1053922973_2494_I,-0.055193026990455134
1053922973_2495_I,-0.056818554973044645
1053922973_2496_I,-0.05569694705360081
1053922973_2497_I,-0.049045979486642195
1053922973_2498_I,-0.036433967083294584
1053922973_2499_I,-0.019777698112019387
1053922973_0_II,-0.10798148771262026
1053922973_1_II,-0.10810711550871073
1053922973_2_II,-0.10815422593224465
1053922973_3_II,-0.10812281898322204
1053922973_4_II,-0.10850391459759766
1053922973_5_II,-0.10807781467274023
1053922973_6_II,-0.10591635149165195
1053922973_7_II,-0.1023423884902853
1053922973_8_II,-0.09856668202813808
1053922973_9_II,-0.09579998846470807
1053922973_10_II,-0.09497040161828949
1053922973_11_II,-0.0951497537718845
1053922973_12_II,-0.09534706331045013
1053922973_13_II,-0.09534706331045013
1053922973_14_II,-0.09534706331045013
1053922973_15_II,-0.09534706331045013
1053922973_16_II,-0.09534706331045013
1053922973_17_II,-0.09534706331045013
1053922973_18_II,-0.09534706331045013
1053922973_19_II,-0.09575084582682561
1053922973_20_II,-0.09562063631111302
1053922973_21_II,-0.09402760195798229
1053922973_22_II,-0.09069070599770873
1053922973_23_II,-0.08682070478979008
1053922973_24_II,-0.08362835469372412
1053922973_25_II,-0.08232441206900865
1053922973_26_II,-0.08230261195145178
1053922973_27_II,-0.08263412153572344
1053922973_28_II,-0.08263412153572344
1053922973_29_II,-0.08263412153572344
1053922973_30_II,-0.08263412153572344
1053922973_31_II,-0.08268821538674594
1053922973_32_II,-0.08308239107165567
1053922973_33_II,-0.0826824512878665
1053922973_34_II,-0.08029079364511832
1053922973_35_II,-0.07665874626273572
1053922973_36_II,-0.07391592198056289
1053922973_37_II,-0.07371661717700054
1053922973_38_II,-0.07699638943940473
1053922973_39_II,-0.08231983034938653
1053922973_40_II,-0.08772278626442322
1053922973_41_II,-0.09271405250180109
1053922973_42_II,-0.09814523772160635
1053922973_43_II,-0.10295205279484199
1053922973_44_II,-0.10620603440969584
1053922973_45_II,-0.10778813175469633
1053922973_46_II,-0.10890961848026628
1053922973_47_II,-0.11117535273210968
1053922973_48_II,-0.11488920597935823
1053922973_49_II,-0.11848925522308955
1053922973_50_II,-0.12072927272608616
1053922973_51_II,-0.12120791462919085
1053922973_52_II,-0.12120362850438307
1053922973_53_II,-0.1210732711912633
1053922973_54_II,-0.11969424748370788
1053922973_55_II,-0.11646435684622196
1053922973_56_II,-0.1125943556383033
1053922973_57_II,-0.1092950002194497
1053922973_58_II,-0.10777704694915893
1053922973_59_II,-0.10767499283951132
1053922973_60_II,-0.10806000508517681
1053922973_61_II,-0.10806000508517681
1053922973_62_II,-0.10806000508517681
1053922973_63_II,-0.10806000508517681
1053922973_64_II,-0.10806000508517681
1053922973_65_II,-0.10806000508517681
1053922973_66_II,-0.10806000508517681
1053922973_67_II,-0.10806000508517681
1053922973_68_II,-0.10806000508517681
1053922973_69_II,-0.10806000508517681
1053922973_70_II,-0.10806000508517681
1053922973_71_II,-0.10806000508517681
1053922973_72_II,-0.10806000508517681
1053922973_73_II,-0.10806000508517681
1053922973_74_II,-0.10806000508517681
1053922973_75_II,-0.10806000508517681
1053922973_76_II,-0.10806000508517681
1053922973_77_II,-0.10806000508517681
1053922973_78_II,-0.10806000508517681
1053922973_79_II,-0.10806000508517681
1053922973_80_II,-0.10806000508517681
1053922973_81_II,-0.10806000508517681
1053922973_82_II,-0.10806000508517681
1053922973_83_II,-0.10806000508517681
1053922973_84_II,-0.10806000508517681
1053922973_85_II,-0.10835678227876464
1053922973_86_II,-0.10838693294982635
1053922973_87_II,-0.10722228938136413
1053922973_88_II,-0.10409962576277661
1053922973_89_II,-0.10022969845356154
1053922973_90_II,-0.09682326381321671
1053922973_91_II,-0.09509107820123991
1053922973_92_II,-0.09490840060598366
1053922973_93_II,-0.09534706331045013
1053922973_94_II,-0.09534706331045013
1053922973_95_II,-0.09534706331045013
1053922973_96_II,-0.09534706331045013
1053922973_97_II,-0.09534706331045013
1053922973_98_II,-0.09534706331045013
1053922973_99_II,-0.09534706331045013
1053922973_100_II,-0.09534706331045013
1053922973_101_II,-0.09534706331045013
1053922973_102_II,-0.09534706331045013
1053922973_103_II,-0.0949694409351429
1053922973_104_II,-0.09506055803666028
1053922973_105_II,-0.09643093559589655
1053922973_106_II,-0.09941644322063473
1053922973_107_II,-0.10387696896888216
1053922973_108_II,-0.10952992419813887
1053922973_109_II,-0.1145949413416922
1053922973_110_II,-0.11834980836942911
1053922973_111_II,-0.12051193663884965
1053922973_112_II,-0.12117702497109331
1053922973_113_II,-0.1212034807069759
1053922973_114_II,-0.12110423474806442
1053922973_115_II,-0.1199744713676932
1053922973_116_II,-0.11686924784315117
1053922973_117_II,-0.1129993205339361
1053922973_118_II,-0.10981872033173978
1053922973_119_II,-0.10816205919482441
1053922973_120_II,-0.10699881970173028
1053922973_121_II,-0.10493113397548834
1053922973_122_II,-0.10087409514880205
1053922973_123_II,-0.09555767461566061
1053922973_124_II,-0.09015700956043499
1053922973_125_II,-0.08599887730724767
1053922973_126_II,-0.08377955144125418
1053922973_127_II,-0.0825659130323167
1053922973_128_II,-0.08099312692396762
1053922973_129_II,-0.07791339845216158
1053922973_130_II,-0.07404339724424293
1053922973_131_II,-0.07087085200073712
1053922973_132_II,-0.06960651908114193
1053922973_133_II,-0.06970835149467879
1053922973_134_II,-0.07034225457401058
1053922973_135_II,-0.0697780379721572
1053922973_136_II,-0.06740914113011248
1053922973_137_II,-0.06376593504348892
1053922973_138_II,-0.060059176071784286
1053922973_139_II,-0.05749962057449638
1053922973_140_II,-0.05680851989859164
1053922973_141_II,-0.05705704123874002
1053922973_142_II,-0.057208237986270075
1053922973_143_II,-0.057208237986270075
1053922973_144_II,-0.057208237986270075
1053922973_145_II,-0.057208237986270075
1053922973_146_II,-0.05744279247144134
1053922973_147_II,-0.05756627720512791
1053922973_148_II,-0.05662495551889239
1053922973_149_II,-0.05369065969573698
1053922973_150_II,-0.04985908581368129
1053922973_151_II,-0.046340990232223114
1053922973_152_II,-0.044347129310860225
1053922973_153_II,-0.044032764225819726
1053922973_154_II,-0.04446972726010381
1053922973_155_II,-0.0444952962115434
1053922973_156_II,-0.04464028546797251
1053922973_157_II,-0.044898118044772305
1053922973_158_II,-0.044225492044763226
1053922973_159_II,-0.041694239750947465
1053922973_160_II,-0.03799701371200499
1053922973_161_II,-0.034344570287433596
1053922973_162_II,-0.03194766583673105
1053922973_163_II,-0.03136460506546411
1053922973_164_II,-0.03166722025663497
1053922973_165_II,-0.03178235443681671
1053922973_166_II,-0.03178235443681671
1053922973_167_II,-0.03178235443681671
1053922973_168_II,-0.03178235443681671
1053922973_169_II,-0.03124112033177754
1053922973_170_II,-0.031102338566449363
1053922973_171_II,-0.033201357343010336
1053922973_172_II,-0.03842274414334451
1053922973_173_II,-0.046701098614781264
1053922973_174_II,-0.05701957459602363
1053922973_175_II,-0.06741135809121997
1053922973_176_II,-0.07739374276856853
1053922973_177_II,-0.08781752440241616
1053922973_178_II,-0.09761346265062576
1053922973_179_II,-0.10603451551868055
1053922973_180_II,-0.11280895747350725
1053922973_181_II,-0.11814052724088313
1053922973_182_II,-0.12310385976830676
1053922973_183_II,-0.12794193399315784
1053922973_184_II,-0.1313703165484667
1053922973_185_II,-0.13303961436369469
1053922973_186_II,-0.1341609532918575
1053922973_187_II,-0.13629625633187753
1053922973_188_II,-0.13990133068745247
1053922973_189_II,-0.143566854182558
1053922973_190_II,-0.1460029988448629
1053922973_191_II,-0.14661221975719813
1053922973_192_II,-0.1463226846365614
1053922973_193_II,-0.14619883040935688
1053922973_194_II,-0.14619883040935688
1053922973_195_II,-0.14619883040935688
1053922973_196_II,-0.14619883040935688
1053922973_197_II,-0.14619883040935688
1053922973_198_II,-0.14619883040935688
1053922973_199_II,-0.14619883040935688
1053922973_200_II,-0.14619883040935688
1053922973_201_II,-0.14619883040935688
1053922973_202_II,-0.14619883040935688
1053922973_203_II,-0.14619883040935688
1053922973_204_II,-0.14619883040935688
1053922973_205_II,-0.14663128562272243
1053922973_206_II,-0.14645791926411758
1053922973_207_II,-0.14475056361654454
1053922973_208_II,-0.1413565439584016
1053922973_209_II,-0.13748661664918654
1053922973_210_II,-0.1347390628499844
1053922973_211_II,-0.1334437663735881
1053922973_212_II,-0.13193660231402038
1053922973_213_II,-0.12893520646801193
1053922973_214_II,-0.1250652052600933
1053922973_215_II,-0.12218308192166721
1053922973_216_II,-0.1207754594158253
1053922973_217_II,-0.11938039968959246
1053922973_218_II,-0.11651335168669724
1053922973_219_II,-0.11264335047877859
1053922973_220_II,-0.10932891972439412
1053922973_221_II,-0.10778081578304163
1053922973_222_II,-0.10766745517174589
1053922973_223_II,-0.10806000508517681
1053922973_224_II,-0.10806000508517681
1053922973_225_II,-0.10780682812670273
1053922973_226_II,-0.10771127710297038
1053922973_227_II,-0.10870831841170721
1053922973_228_II,-0.11172678485824324
1053922973_229_II,-0.1155865141463639
1053922973_230_II,-0.11886835557246843
1053922973_231_II,-0.12061561651997608
1053922973_232_II,-0.12173673375202813
1053922973_233_II,-0.12366445533368459
1053922973_234_II,-0.1276099071179611
1053922973_235_II,-0.13267588494466098
1053922973_236_II,-0.13793407329937932
1053922973_237_II,-0.14292541343546078
1053922973_238_II,-0.1482954844274032
1053922973_239_II,-0.15319363829826693
1053922973_240_II,-0.15681024085160078
1053922973_241_II,-0.1588116394407291
1053922973_242_II,-0.15933883279208755
1053922973_243_II,-0.15900828389096244
1053922973_244_II,-0.15891177218408353
1053922973_245_II,-0.1589856708876662
1053922973_246_II,-0.1593501392937357
1053922973_247_II,-0.15889093274967325
1053922973_248_II,-0.15667921845014876
1053922973_249_II,-0.15308840654436529
1053922973_250_II,-0.1493292533918206
1053922973_251_II,-0.14661251535201242
1053922973_252_II,-0.1458164046183168
1053922973_253_II,-0.14601275347373582
1053922973_254_II,-0.14619883040935688
1053922973_255_II,-0.14619883040935688
1053922973_256_II,-0.14619883040935688
1053922973_257_II,-0.14619883040935688
1053922973_258_II,-0.14619883040935688
1053922973_259_II,-0.14619883040935688
1053922973_260_II,-0.14619883040935688
1053922973_261_II,-0.14619883040935688
1053922973_262_II,-0.14619883040935688
1053922973_263_II,-0.14604393872664773
1053922973_264_II,-0.14580095978926802
1053922973_265_II,-0.14650329306811732
1053922973_266_II,-0.14907910628019339
1053922973_267_II,-0.15279118595855595
1053922973_268_II,-0.15642877574370723
1053922973_269_II,-0.15878111927614946
1053922973_270_II,-0.15933447276857618
1053922973_271_II,-0.1590170039379852
1053922973_272_II,-0.15891177218408353
1053922973_273_II,-0.15891177218408353
1053922973_274_II,-0.15891177218408353
1053922973_275_II,-0.15891177218408353
1053922973_276_II,-0.15891177218408353
1053922973_277_II,-0.15891177218408353
1053922973_278_II,-0.15891177218408353
1053922973_279_II,-0.15891177218408353
1053922973_280_II,-0.15891177218408353
1053922973_281_II,-0.15891177218408353
1053922973_282_II,-0.15891177218408353
1053922973_283_II,-0.15891177218408353
1053922973_284_II,-0.1593628498707519
1053922973_285_II,-0.15916154980219283
1053922973_286_II,-0.1573797042614085
1053922973_287_II,-0.1539484396566599
1053922973_288_II,-0.15007851234744485
1053922973_289_II,-0.1469806786932611
1053922973_290_II,-0.14586569505360641
1053922973_291_II,-0.14591446819797094
1053922973_292_II,-0.14619883040935688
1053922973_293_II,-0.14619883040935688
1053922973_294_II,-0.14619883040935688
1053922973_295_II,-0.14619883040935688
1053922973_296_II,-0.14619883040935688
1053922973_297_II,-0.14619883040935688
1053922973_298_II,-0.14619883040935688
1053922973_299_II,-0.14619883040935688
1053922973_300_II,-0.14619883040935688
1053922973_301_II,-0.14619883040935688
1053922973_302_II,-0.14619883040935688
1053922973_303_II,-0.14619883040935688
1053922973_304_II,-0.14619883040935688
1053922973_305_II,-0.14619883040935688
1053922973_306_II,-0.14619883040935688
1053922973_307_II,-0.14619883040935688
1053922973_308_II,-0.14619883040935688
1053922973_309_II,-0.14642584722676272
1053922973_310_II,-0.14656063846209744
1053922973_311_II,-0.1456420775765654
1053922973_312_II,-0.14274133176483644
1053922973_313_II,-0.13892084268831817
1053922973_314_II,-0.13539136670650825
1053922973_315_II,-0.13336366017890453
1053922973_316_II,-0.13302690378667847
1053922973_317_II,-0.13345292981283233
1053922973_318_II,-0.13348588863463018
1053922973_319_II,-0.13348588863463018
1053922973_320_II,-0.13348588863463018
1053922973_321_II,-0.13348588863463018
1053922973_322_II,-0.13313324402113388
1053922973_323_II,-0.13318674668252772
1053922973_324_II,-0.134297370298671
1053922973_325_II,-0.1365226819596547
1053922973_326_II,-0.14193945693226134
1053922973_327_II,-0.15181358000886136
1053922973_328_II,-0.16416486152825466
1053922973_329_II,-0.17666534453018132
1053922973_330_II,-0.18732493692716107
1053922973_331_II,-0.1934147812919983
1053922973_332_II,-0.19638972140212413
1053922973_333_II,-0.19765590178930892
1053922973_334_II,-0.19680421923051916
1053922973_335_II,-0.19520446009536238
1053922973_336_II,-0.1903478372959121
1053922973_337_II,-0.17952182501846423
1053922973_338_II,-0.1638652761839307
1053922973_339_II,-0.14727745588684887
1053922973_340_II,-0.14054986571009365
1053922973_341_II,-0.12955750745088127
1053922973_342_II,-0.09694844821708569
1053922973_343_II,-0.03649723952279555
1053922973_344_II,0.039590048065135705
1053922973_345_II,0.1114036258274764
1053922973_346_II,0.164121778584066
1053922973_347_II,0.21224875268447407
1053922973_348_II,0.2673053560172324
1053922973_349_II,0.3341961716404163
1053922973_350_II,0.4047682511825688
1053922973_351_II,0.47532562488270846
1053922973_352_II,0.5501117779966604
1053922973_353_II,0.6307595762787863
1053922973_354_II,0.7190504957763528
1053922973_355_II,0.8160130586458227
1053922973_356_II,0.9137226635098095
1053922973_357_II,1.0058439006114708
1053922973_358_II,1.092472838265464
1053922973_359_II,1.1584605378321646
1053922973_360_II,1.2010227917553935
1053922973_361_II,1.2236191678433714
1053922973_362_II,1.2277560911686307
1053922973_363_II,1.2198495210749183
1053922973_364_II,1.2125688730005506
1053922973_365_II,1.202364422718936
1053922973_366_II,1.1918804136416687
1053922973_367_II,1.1810320100570355
1053922973_368_II,1.1690776384745845
1053922973_369_II,1.1549771007426868
1053922973_370_II,1.1398983658714656
1053922973_371_II,1.123562835748415
1053922973_372_II,1.097399443137207
1053922973_373_II,1.0542110454985225
1053922973_374_II,1.000463262104916
1053922973_375_II,0.9518573505065889
1053922973_376_II,0.9216743857114111
1053922973_377_II,0.8545950544953879
1053922973_378_II,0.6918525952136916
1053922973_379_II,0.4575969563997181
1053922973_380_II,0.2196944904626454
1053922973_381_II,0.046025073274407406
1053922973_382_II,-0.024636423699080135
1053922973_383_II,-0.04451354919132829
1053922973_384_II,-0.0683908854072077
1053922973_385_II,-0.09291727393665332
1053922973_386_II,-0.10906266269538592
1053922973_387_II,-0.11801578622923566
1053922973_388_II,-0.1222626708254257
1053922973_389_II,-0.12643610011025463
1053922973_390_II,-0.13045219905515615
1053922973_391_II,-0.13291967676778008
1053922973_392_II,-0.13384636651070625
1053922973_393_II,-0.133715565805365
1053922973_394_II,-0.13348588863463018
1053922973_395_II,-0.13348588863463018
1053922973_396_II,-0.13348588863463018
1053922973_397_II,-0.13348588863463018
1053922973_398_II,-0.13332981457266369
1053922973_399_II,-0.13308860920416998
1053922973_400_II,-0.13379448962079127
1053922973_401_II,-0.1363756235395253
1053922973_402_II,-0.14008947678677386
1053922973_403_II,-0.1436140015554437
1053922973_404_II,-0.14565264509117765
1053922973_405_II,-0.1467739840193405
1053922973_406_II,-0.14883435377392773
1053922973_407_II,-0.15237698372497532
1053922973_408_II,-0.1560134650295729
1053922973_409_II,-0.15818645640842005
1053922973_410_II,-0.15930779533658285
1053922973_411_II,-0.1612338172480569
1053922973_412_II,-0.16466449066317682
1053922973_413_II,-0.16843465472255537
1053922973_414_II,-0.17118472107767926
1053922973_415_II,-0.17200322311856045
1053922973_416_II,-0.1718183285621967
1053922973_417_II,-0.17162471395881024
1053922973_418_II,-0.17162471395881024
1053922973_419_II,-0.17162471395881024
1053922973_420_II,-0.17162471395881024
1053922973_421_II,-0.17181685058812507
1053922973_422_II,-0.17200396210559626
1053922973_423_II,-0.17118989398693005
1053922973_424_II,-0.1684464785151286
1053922973_425_II,-0.1646785314168575
1053922973_426_II,-0.16124416306655848
1053922973_427_II,-0.15931370723286947
1053922973_428_II,-0.15819236830470668
1053922973_429_II,-0.15602381084807443
1053922973_430_II,-0.15239102447865605
1053922973_431_II,-0.14874212819185662
1053922973_432_II,-0.14635586515446997
1053922973_433_II,-0.14577989865874696
1053922973_434_II,-0.14608606098768978
1053922973_435_II,-0.14619883040935688
1053922973_436_II,-0.14585239328696153
1053922973_437_II,-0.14352000240448662
1053922973_438_II,-0.14598518925729953
1053922973_439_II,-0.15854530851301732
1053922973_440_II,-0.17987816456713962
1053922973_441_II,-0.2036480520680099
1053922973_442_II,-0.22346007280240177
1053922973_443_II,-0.23239789930460986
1053922973_444_II,-0.23504864580211873
1053922973_445_II,-0.23579494880959972
1053922973_446_II,-0.23509084196186442
1053922973_447_II,-0.23172246515386466
1053922973_448_II,-0.2279002025084604
1053922973_449_II,-0.22437250009553644
1053922973_450_II,-0.22235011427459067
1053922973_451_II,-0.2220169050201366
1053922973_452_II,-0.2224447046151764
1053922973_453_II,-0.22247648105771695
1053922973_454_II,-0.22247648105771695
1053922973_455_II,-0.22247648105771695
1053922973_456_II,-0.22247648105771695
1053922973_457_II,-0.22283030805047058
1053922973_458_II,-0.22277503182019076
1053922973_459_II,-0.22138181956154748
1053922973_460_II,-0.21814483464851764
1053922973_461_II,-0.214274833440599
1053922973_462_II,-0.21098257229728934
1053922973_463_II,-0.20947880757808643
1053922973_464_II,-0.20938207417509677
1053922973_465_II,-0.2097635392829903
1053922973_466_II,-0.2097635392829903
1053922973_467_II,-0.2097635392829903
1053922973_468_II,-0.2097635392829903
1053922973_469_II,-0.2097635392829903
1053922973_470_II,-0.2097635392829903
1053922973_471_II,-0.2097635392829903
1053922973_472_II,-0.2097635392829903
1053922973_473_II,-0.2097635392829903
1053922973_474_II,-0.2097635392829903
1053922973_475_II,-0.2097635392829903
1053922973_476_II,-0.2097635392829903
1053922973_477_II,-0.2097635392829903
1053922973_478_II,-0.2097635392829903
1053922973_479_II,-0.2097635392829903
1053922973_480_II,-0.21015342884309224
1053922973_481_II,-0.21004391096438277
1053922973_482_II,-0.20850681792986409
1053922973_483_II,-0.20519792957824837
1053922973_484_II,-0.2013280022690333
1053922973_485_II,-0.19810779236171666
1053922973_486_II,-0.19674805621579633
1053922973_487_II,-0.19670504717031123
1053922973_488_II,-0.1970505975082636
1053922973_489_II,-0.1970505975082636
1053922973_490_II,-0.1970505975082636
1053922973_491_II,-0.1970505975082636
1053922973_492_II,-0.1970505975082636
1053922973_493_II,-0.1970505975082636
1053922973_494_II,-0.1970505975082636
1053922973_495_II,-0.1970505975082636
1053922973_496_II,-0.1970505975082636
1053922973_497_II,-0.1970505975082636
1053922973_498_II,-0.1970505975082636
1053922973_499_II,-0.1970505975082636
1053922973_500_II,-0.1970505975082636
1053922973_501_II,-0.1970505975082636
1053922973_502_II,-0.1970505975082636
1053922973_503_II,-0.1970505975082636
1053922973_504_II,-0.1970505975082636
1053922973_505_II,-0.1970505975082636
1053922973_506_II,-0.1970505975082636
1053922973_507_II,-0.1970505975082636
1053922973_508_II,-0.1970505975082636
1053922973_509_II,-0.1970505975082636
1053922973_510_II,-0.1970505975082636
1053922973_511_II,-0.1970505975082636
1053922973_512_II,-0.1970505975082636
1053922973_513_II,-0.1970505975082636
1053922973_514_II,-0.1970505975082636
1053922973_515_II,-0.1970505975082636
1053922973_516_II,-0.1970505975082636
1053922973_517_II,-0.1970505975082636
1053922973_518_II,-0.1970505975082636
1053922973_519_II,-0.1970505975082636
1053922973_520_II,-0.1970505975082636
1053922973_521_II,-0.1970505975082636
1053922973_522_II,-0.1970505975082636
1053922973_523_II,-0.1970505975082636
1053922973_524_II,-0.1970505975082636
1053922973_525_II,-0.1970505975082636
1053922973_526_II,-0.1970505975082636
1053922973_527_II,-0.1970505975082636
1053922973_528_II,-0.1972526365638585
1053922973_529_II,-0.19742489444190964
1053922973_530_II,-0.19658126684181035
1053922973_531_II,-0.1942103008360653
1053922973_532_II,-0.19027652504695486
1053922973_533_II,-0.18521978455820276
1053922973_534_II,-0.17995524091497633
1053922973_535_II,-0.1749641963737092
1053922973_536_II,-0.16960107185990353
1053922973_537_II,-0.1646936067523884
1053922973_538_II,-0.16117026436297582
1053922973_539_II,-0.15945322798523345
1053922973_540_II,-0.15833188905707066
1053922973_541_II,-0.15659578681380396
1053922973_542_II,-0.1530337954024177
1053922973_543_II,-0.14811147665548247
1053922973_544_II,-0.1427572938848103
1053922973_545_II,-0.13776602764743243
1053922973_546_II,-0.1327749831061653
1053922973_547_II,-0.12778445585582326
1053922973_548_II,-0.12286213710888799
1053922973_549_II,-0.11919373156434274
1053922973_550_II,-0.11328323935310056
1053922973_551_II,-0.10258455454192557
1053922973_552_II,-0.08716913717718218
1053922973_553_II,-0.06971951019891978
1053922973_554_II,-0.05248529794160073
1053922973_555_II,-0.041013854387062204
1053922973_556_II,-0.0346597482582135
1053922973_557_II,-0.031838886945057425
1053922973_558_II,-0.03041463723090943
1053922973_559_II,-0.0285506902304448
1053922973_560_II,-0.02482449589969794
1053922973_561_II,-0.0213930095988386
1053922973_562_II,-0.019466174801625158
1053922973_563_II,-0.01834520536698027
1053922973_564_II,-0.016536977989016943
1053922973_565_II,-0.01283036681471948
1053922973_566_II,-0.007853880318058136
1053922973_567_II,-0.0025358340134378848
1053922973_568_II,0.0024552105278292376
1053922973_569_II,0.007126790973508657
1053922973_570_II,0.012120791462919084
1053922973_571_II,0.018365749206576243
1053922973_572_II,0.026524313879505552
1053922973_573_II,0.03538558132480208
1053922973_574_II,0.04346433539786215
1053922973_575_II,0.05003444743728287
1053922973_576_II,0.056248958915063985
1053922973_577_II,0.06390139136715586
1053922973_578_II,0.07276258491374882
1053922973_579_II,0.0814346716778738
1053922973_580_II,0.0883792284483477
1053922973_581_II,0.0926608454352216
1053922973_582_II,0.09427922704368116
1053922973_583_II,0.0954463092693616
1053922973_584_II,0.09691209005492303
1053922973_585_II,0.09988636507671664
1053922973_586_II,0.104548043096116
1053922973_587_II,0.10996866080130893
1053922973_588_II,0.11499037330456285
1053922973_589_II,0.11984145370124448
1053922973_590_II,0.12456690630183562
1053922973_591_II,0.1302150581153595
1053922973_592_II,0.13771392906140667
1053922973_593_II,0.14639451417644367
1053922973_594_II,0.15504590930356554
1053922973_595_II,0.16245706248846015
1053922973_596_II,0.1680469082248573
1053922973_597_II,0.17305369318998753
1053922973_598_II,0.17793411137199144
1053922973_599_II,0.1817062706963667
1053922973_600_II,0.18354753079483146
1053922973_601_II,0.1846683524320692
1053922973_602_II,0.18654611849010377
1053922973_603_II,0.189936369314364
1053922973_604_II,0.19373099384462839
1053922973_605_II,0.19655414601759552
1053922973_606_II,0.19742119950673048
1053922973_607_II,0.19748113135533601
1053922973_608_II,0.1974155093065546
1053922973_609_II,0.19651542309691822
1053922973_610_II,0.19364298048866146
1053922973_611_II,0.18983202434490534
1053922973_612_II,0.18646918993967426
1053922973_613_II,0.18462497389306617
1053922973_614_II,0.18350422615453205
1053922973_615_II,0.18164116593851043
