id,value
1053922973_0_I,0.1126126273373457
1053922973_1_I,0.11231245285338215
1053922973_2_I,0.11200955923624946
1053922973_3_I,0.11170476129722887
1053922973_4_I,0.11139880258457498
1053922973_5_I,0.11109234966761519
1053922973_6_I,0.11078598839816944
1053922973_7_I,0.11048022206249222
1053922973_8_I,0.11017547129902493
1053922973_9_I,0.10987207562648388
1053922973_10_I,0.10957029640319459
1053922973_11_I,0.10927032102192241
1053922973_12_I,0.10897226813439291
1053922973_13_I,0.10867619369575925
1053922973_14_I,0.10838209762087996
1053922973_15_I,0.10808993085075935
1053922973_16_I,0.1077996026381798
1053922973_17_I,0.10751098787568981
1053922973_18_I,0.10722393430598261
1053922973_19_I,0.10693826947359213
1053922973_20_I,0.10665380729706977
1053922973_21_I,0.10637035416174723
1053922973_22_I,0.10608771445426092
1053922973_23_I,0.10580569548069008
1053922973_24_I,0.10552411172999725
1053922973_25_I,0.10524278846307486
1053922973_26_I,0.10496156462478938
1053922973_27_I,0.1046802950917362
1053922973_28_I,0.10439885228180831
1053922973_29_I,0.10411712716303517
1053922973_30_I,0.10383502970842108
1053922973_31_I,0.1035524888507182
1053922973_32_I,0.10326945199626299
1053922973_33_I,0.1029858841602885
1053922973_34_I,0.10270176678762999
1053922973_35_I,0.10241709632262855
1053922973_36_I,0.10213188259048832
1053922973_37_I,0.10184614704954767
1053922973_38_I,0.10155992097009055
1053922973_39_I,0.10127324359064852
1053922973_40_I,0.1009861602974319
1053922973_41_I,0.1006987208667695
1053922973_42_I,0.10041097780441434
1053922973_43_I,0.10012298480945483
1053922973_44_I,0.09983479538450822
1053922973_45_I,0.09954646160799904
1053922973_46_I,0.09925803307875324
1053922973_47_I,0.0989695560379633
1053922973_48_I,0.09868107266887656
1053922973_49_I,0.09839262057038059
1053922973_50_I,0.09810423239704591
1053922973_51_I,0.09781593565515535
1053922973_52_I,0.09752775264180605
1053922973_53_I,0.0972397005123036
1053922973_54_I,0.0969517914597569
1053922973_55_I,0.09666403298999411
1053922973_56_I,0.09637642827461379
1053922973_57_I,0.09608897656511205
1053922973_58_I,0.09580167365153788
1053922973_59_I,0.09551451234996433
1053922973_60_I,0.09522748300417136
1053922973_61_I,0.09494057398825793
1053922973_62_I,0.09465377219838146
1053922973_63_I,0.09436706352341025
1053922973_64_I,0.09408043328592076
1053922973_65_I,0.09379386664662959
1053922973_66_I,0.09350734896698219
1053922973_67_I,0.09322086612618975
1053922973_68_I,0.09293440479048447
1053922973_69_I,0.09264795263372676
1053922973_70_I,0.09236149850972655
1053922973_71_I,0.09207503257772368
1053922973_72_I,0.09178854638339727
1053922973_73_I,0.091502032898541
1053922973_74_I,0.09121548652314725
1053922973_75_I,0.09092890305409446
1053922973_76_I,0.09064227962493485
1053922973_77_I,0.09035561462144322
1053922973_78_I,0.09006890757762447
1053922973_79_I,0.08978215905680152
1053922973_80_I,0.08949537052223003
1053922973_81_I,0.0892085442014276
1053922973_82_I,0.08892168294807791
1053922973_83_I,0.08863479010499171
1053922973_84_I,0.08834786937118758
1053922973_85_I,0.0880609246757148
1053922973_86_I,0.08777396006038754
1053922973_87_I,0.08748697957314736
1053922973_88_I,0.08719998717333075
1053922973_89_I,0.08691298664969739
1053922973_90_I,0.08662598155168152
1053922973_91_I,0.08633897513396986
1053922973_92_I,0.08605197031418818
1053922973_93_I,0.08576496964319828
1053922973_94_I,0.08547797528727116
1053922973_95_I,0.08519098902120888
1053922973_96_I,0.0849040122313376
1053922973_97_I,0.08461704592718776
1053922973_98_I,0.0843300907606081
1053922973_99_I,0.08404314705103018
1053922973_100_I,0.08375621481560139
1053922973_101_I,0.08346929380293652
1053922973_102_I,0.08318238352929491
1053922973_103_I,0.08289548331606882
1053922973_104_I,0.08260859232756403
1053922973_105_I,0.08232170960816178
1053922973_106_I,0.08203483411806878
1053922973_107_I,0.08174796476698426
1053922973_108_I,0.08146110044513705
1053922973_109_I,0.0811742400512691
1053922973_110_I,0.08088738251725994
1053922973_111_I,0.08060052682919977
1053922973_112_I,0.08031367204482254
1053922973_113_I,0.08002681730730539
1053922973_114_I,0.07973996185552454
1053922973_115_I,0.07945310503092921
1053922973_116_I,0.07916624628125639
1053922973_117_I,0.0788793851613566
1053922973_118_I,0.07859252133143818
1053922973_119_I,0.07830565455306213
1053922973_120_I,0.07801878468323496
1053922973_121_I,0.07773191166695143
1053922973_122_I,0.07744503552853542
1053922973_123_I,0.07715815636211598
1053922973_124_I,0.0768712743215573
1053922973_125_I,0.07658438961013815
1053922973_126_I,0.07629750247024904
1053922973_127_I,0.07601061317334393
1053922973_128_I,0.07572372201035162
1053922973_129_I,0.07543682928271704
1053922973_130_I,0.0751499352942097
1053922973_131_I,0.07486304034360279
1053922973_132_I,0.0745761447182945
1053922973_133_I,0.0742892486889133
1053922973_134_I,0.07400235250492133
1053922973_135_I,0.07371545639120539
1053922973_136_I,0.0734285605456228
1053922973_137_I,0.07314166513745184
1053922973_138_I,0.07285477030667999
1053922973_139_I,0.07256787616405261
1053922973_140_I,0.07228098279179467
1053922973_141_I,0.07199409024491306
1053922973_142_I,0.07170719855298369
1053922973_143_I,0.07142030772232753
1053922973_144_I,0.07113341773848109
1053922973_145_I,0.07084652856887107
1053922973_146_I,0.0705596401656084
1053922973_147_I,0.07027275246832324
1053922973_148_I,0.0699858654069711
1053922973_149_I,0.06969897890454825
1053922973_150_I,0.06941209287966403
1053922973_151_I,0.06912520724892691
1053922973_152_I,0.06883832192910976
1053922973_153_I,0.06855143683906983
1053922973_154_I,0.06826455190140635
1053922973_155_I,0.0679776670438473
1053922973_156_I,0.06769078220036362
1053922973_157_I,0.06740389731201597
1053922973_158_I,0.06711701232754472
1053922973_159_I,0.0668301272037179
1053922973_160_I,0.06654324190545662
1053922973_161_I,0.06625635640575935
1053922973_162_I,0.06596947068544963
1053922973_163_I,0.06568258473277203
1053922973_164_I,0.06539569854286224
1053922973_165_I,0.06510881211711744
1053922973_166_I,0.0648219254624913
1053922973_167_I,0.06453503859073789
1053922973_168_I,0.0642481515176269
1053922973_169_I,0.06396126426215003
1053922973_170_I,0.06367437684573705
1053922973_171_I,0.06338748929149761
1053922973_172_I,0.06310060162350178
1053922973_173_I,0.06281371386611129
1053922973_174_I,0.06252682604336941
1053922973_175_I,0.0622399381784566
1053922973_176_I,0.06195305029321617
1053922973_177_I,0.061666162407752544
1053922973_178_I,0.06137927454010278
1053922973_179_I,0.061092386705980745
1053922973_180_I,0.06080549891859191
1053922973_181_I,0.06051861118851579
1053922973_182_I,0.06023172352365203
1053922973_183_I,0.05994483592922571
1053922973_184_I,0.059657948407846696
1053922973_185_I,0.05937106095961802
1053922973_186_I,0.05908417358228785
1053922973_187_I,0.05879728627143968
1053922973_188_I,0.058510399020715614
1053922973_189_I,0.058223511822067434
1053922973_190_I,0.057936624666030744
1053922973_191_I,0.057649737542017465
1053922973_192_I,0.05736285043862219
1053922973_193_I,0.05707596334393835
1053922973_194_I,0.05678907624587994
1053922973_195_I,0.05650218913250498
1053922973_196_I,0.05621530199233675
1053922973_197_I,0.05592841481467895
1053922973_198_I,0.05564152758992079
1053922973_199_I,0.05535464030982794
1053922973_200_I,0.05506775296781511
1053922973_201_I,0.054780865559195716
1053922973_202_I,0.0544939780814042
1053922973_203_I,0.05420709053418603
1053922973_204_I,0.05392020291975032
1053922973_205_I,0.053633315242880085
1053922973_206_I,0.05334642751099485
1053922973_207_I,0.05305953973416058
1053922973_208_I,0.05277265192504208
1053922973_209_I,0.05248576409879316
1053922973_210_I,0.052198876272880716
1053922973_211_I,0.05191198846683934
1053922973_212_I,0.05162510070195397
1053922973_213_I,0.051338213000869506
1053922973_214_I,0.05105132538712738
1053922973_215_I,0.05076443788463109
1053922973_216_I,0.050477550517044965
1053922973_217_I,0.05019066330713196
1053922973_218_I,0.04990377627603949
1053922973_219_I,0.04961688944254418
1053922973_220_I,0.04933000282226934
1053922973_221_I,0.04904311642689082
1053922973_222_I,0.0487562302633499
1053922973_223_I,0.04846934433309364
1053922973_224_I,0.04818245863136521
1053922973_225_I,0.0478955731465681
1053922973_226_I,0.04760868785972988
1053922973_227_I,0.04732180274409093
1053922973_228_I,0.04703491776484466
1053922973_229_I,0.046748032879054435
1053922973_230_I,0.04646114803577149
1053922973_231_I,0.046174263176375956
1053922973_232_I,0.04588737823516011
1053922973_233_I,0.04560049314016904
1053922973_234_I,0.04531360781430947
1053922973_235_I,0.04502672217673167
1053922973_236_I,0.044739836144483076
1053922973_237_I,0.04445294963442487
1053922973_238_I,0.04416606256539488
1053922973_239_I,0.04387917486059172
1053922973_240_I,0.043592286450146046
1053922973_241_I,0.0433053972738355
1053922973_242_I,0.04301850728389088
1053922973_243_I,0.04273161644783189
1053922973_244_I,0.04244472475126208
1053922973_245_I,0.04215783220054503
1053922973_246_I,0.041870938825276635
1053922973_247_I,0.04158404468046302
1053922973_248_I,0.04129714984830988
1053922973_249_I,0.04101025443952696
1053922973_250_I,0.04072335859405205
1053922973_251_I,0.04043646248110176
1053922973_252_I,0.040149566298462176
1053922973_253_I,0.03986267027094123
1053922973_254_I,0.039575774647916714
1053922973_255_I,0.03928887969992898
1053922973_256_I,0.03900198571428605
1053922973_257_I,0.038715092989670526
1053922973_258_I,0.038428201829762317
1053922973_259_I,0.03814131253591899
1053922973_260_I,0.03785442539898535
1053922973_261_I,0.03756754069033597
1053922973_262_I,0.03728065865228737
1053922973_263_I,0.03699377948805077
1053922973_264_I,0.03670690335142999
1053922973_265_I,0.036420030336501714
1053922973_266_I,0.03613316046754632
1053922973_267_I,0.035846293689524494
1053922973_268_I,0.035559429859418935
1053922973_269_I,0.0352725687387777
1053922973_270_I,0.03498570998780767
1053922973_271_I,0.03469885316137003
1053922973_272_I,0.03441199770722502
1053922973_273_I,0.03412514296685831
1053922973_274_I,0.03383828817919597
1053922973_275_I,0.03355143248747878
1053922973_276_I,0.03326457494951796
1053922973_277_I,0.032977714551494654
1053922973_278_I,0.032690850225392684
1053922973_279_I,0.032403980870071056
1053922973_280_I,0.03211710537588758
1053922973_281_I,0.031830222652681116
1053922973_282_I,0.031543331660807285
1053922973_283_I,0.031256431444803626
1053922973_284_I,0.03096952116913748
1053922973_285_I,0.030682600155365464
1053922973_286_I,0.030395667919911225
1053922973_287_I,0.030108724211550718
1053922973_288_I,0.02982176904758612
1053922973_289_I,0.029534802747593854
1053922973_290_I,0.029247825963554016
1053922973_291_I,0.02896083970511119
1053922973_292_I,0.028673845358685095
1053922973_293_I,0.028386844699147273
1053922973_294_I,0.02809983989281123
1053922973_295_I,0.02781283349055146
1053922973_296_I,0.02752582840997446
1053922973_297_I,0.027238827905714337
1053922973_298_I,0.02695183552711844
1053922973_299_I,0.026664855062825392
1053922973_300_I,0.026377890472017527
1053922973_301_I,0.026090945802450957
1053922973_302_I,0.025804025095726022
1053922973_303_I,0.025517132280653776
1053922973_304_I,0.025230271055994763
1053922973_305_I,0.024943444764287295
1053922973_306_I,0.024656656258934206
1053922973_307_I,0.024369907767169748
1053922973_308_I,0.024083200751969833
1053922973_309_I,0.02379653577638667
1053922973_310_I,0.02350991237416838
1053922973_311_I,0.02322332893085115
1053922973_312_I,0.022936782579770144
1053922973_313_I,0.02265026911761068
1053922973_314_I,0.022363782944197608
1053922973_315_I,0.022077317031183617
1053922973_316_I,0.021790862924133698
1053922973_317_I,0.02150441078220006
1053922973_318_I,0.021217949459130907
1053922973_319_I,0.020931466628749756
1053922973_320_I,0.020644948957275755
1053922973_321_I,0.020358382323929555
1053922973_322_I,0.020071752090187488
1053922973_323_I,0.01978504341681743
1053922973_324_I,0.019498241626466673
1053922973_325_I,0.01921133260809342
1053922973_326_I,0.018924303257963758
1053922973_327_I,0.018637141950304147
1053922973_328_I,0.018349839029041
1053922973_329_I,0.018062387310413087
1053922973_330_I,0.01777478258465507
1053922973_331_I,0.017487024103469216
1053922973_332_I,0.017199115038681052
1053922973_333_I,0.016911062896366985
1053922973_334_I,0.016622879869905155
1053922973_335_I,0.016334583114890933
1053922973_336_I,0.016046194928730672
1053922973_337_I,0.015757742818033913
1053922973_338_I,0.015469259437712575
1053922973_339_I,0.015180782387006705
1053922973_340_I,0.014892353849522378
1053922973_341_I,0.014604020066811156
1053922973_342_I,0.014315830638051186
1053922973_343_I,0.014027837642004179
1053922973_344_I,0.013740094581599954
1053922973_345_I,0.013452655156204269
1053922973_346_I,0.013165571871800784
1053922973_347_I,0.012878894504889856
1053922973_348_I,0.01259266844178111
1053922973_349_I,0.012306932921019455
1053922973_350_I,0.012021719212802286
1053922973_351_I,0.011737048775267744
1053922973_352_I,0.01145293143329238
1053922973_353_I,0.01116936363074947
1053922973_354_I,0.010886326811853806
1053922973_355_I,0.010603785991054606
1053922973_356_I,0.010321688573731752
1053922973_357_I,0.010039963491500822
1053922973_358_I,0.00975852071604491
1053922973_359_I,0.00947725121388603
1053922973_360_I,0.009196027401225744
1053922973_361_I,0.008914704152790392
1053922973_362_I,0.008633120411411248
1053922973_363_I,0.008351101435796397
1053922973_364_I,0.008068461712597792
1053922973_365_I,0.007785008545487619
1053922973_366_I,0.0075005463186356225
1053922973_367_I,0.007214881414891842
1053922973_368_I,0.0069278277503632595
1053922973_369_I,0.0066392128672361364
1053922973_370_I,0.006348884506017441
1053922973_371_I,0.006056717557299078
1053922973_372_I,0.0057626212722056485
1053922973_373_I,0.005466546590450917
1053922973_374_I,0.005168493426035285
1053922973_375_I,0.004868517733746298
1053922973_376_I,0.004566738165487763
1053922973_377_I,0.0042633421147874355
1053922973_378_I,0.003958590941342988
1053922973_379_I,0.0036528241658618774
1053922973_380_I,0.0033464624293867867
1053922973_381_I,0.0030400090213557936
1053922973_382_I,0.0027340497973068287
1053922973_383_I,0.0024292513307514114
1053922973_384_I,0.0021263571745065383
1053922973_385_I,0.0018261821446895643
1053922973_386_I,0.0015296045854325461
1053922973_387_I,0.0012375566236938057
1053922973_388_I,0.0009510124805912219
1053922973_389_I,0.000670974967405808
1053922973_390_I,0.0003984603594299073
1053922973_391_I,0.00013448190743949262
1053922973_392_I,-0.00011996768732978861
1053922973_393_I,-0.000363934445684642
1053922973_394_I,-0.0005965214840924758
1053922973_395_I,-0.0008169070947143383
1053922973_396_I,-0.0010243620013901786
1053922973_397_I,-0.0012182652418615584
1053922973_398_I,-0.0013981181280319896
1053922973_399_I,-0.0015635557629106109
1053922973_400_I,-0.001714355649892749
1053922973_401_I,-0.001850443021839323
1053922973_402_I,-0.001971892645892141
1053922973_403_I,-0.0020789270186589953
1053922973_404_I,-0.002171911037134632
1053922973_405_I,-0.002251343389420529
1053922973_406_I,-0.0023178450377815104
1053922973_407_I,-0.0023721452583856362
1053922973_408_I,-0.0024150657590816483
1053922973_409_I,-0.0024475034234137934
1053922973_410_I,-0.002470412230588867
1053922973_411_I,-0.002484784881857749
1053922973_412_I,-0.0024916346280131445
1053922973_413_I,-0.0024919777443652784
1053922973_414_I,-0.0024868170422137296
1053922973_415_I,-0.0024771267426950483
1053922973_416_I,-0.0024638389727856674
1053922973_417_I,-0.002447832076634452
1053922973_418_I,-0.0024299208703734555
1053922973_419_I,-0.0024108489068314087
1053922973_420_I,-0.002391282759527708
1053922973_421_I,-0.0023718082840033976
1053922973_422_I,-0.002352928769693993
1053922973_423_I,-0.0023350648576330557
1053922973_424_I,-0.0023185560685115743
1053922973_425_I,-0.0023036637620027383
1053922973_426_I,-0.0022905753316013644
1053922973_427_I,-0.0022794094291696985
1053922973_428_I,-0.002270222009445292
1053922973_429_I,-0.002263012986370683
1053922973_430_I,-0.0022577332995948845
1053922973_431_I,-0.002254292200172233
1053922973_432_I,-0.002252564578620597
1053922973_433_I,-0.002252398175371208
1053922973_434_I,-0.00225362053253523
1053922973_435_I,-0.002256045566147734
1053922973_436_I,-0.002259479658992698
1053922973_437_I,-0.002263727195182333
1053922973_438_I,-0.0022685954783424086
1053922973_439_I,-0.002273898995092034
1053922973_440_I,-0.0022794630041221607
1053922973_441_I,-0.002285126448264447
1053922973_442_I,-0.002290744202264456
1053922973_443_I,-0.0022961886823626163
1053922973_444_I,-0.00230135085513961
1053922973_445_I,-0.002306140692356571
1053922973_446_I,-0.0023104871257253615
1053922973_447_I,-0.0023143375607385785
1053922973_448_I,-0.002317657011972133
1053922973_449_I,-0.0023204269237785138
1053922973_450_I,-0.0023226437401762325
1053922973_451_I,-0.0023243172861908967
1053922973_452_I,-0.002325469020109679
1053922973_453_I,-0.0023261302122751628
1053922973_454_I,-0.002326340101369967
1053922973_455_I,-0.0023261440738305823
1053922973_456_I,-0.002325591906270359
1053922973_457_I,-0.002324736104769439
1053922973_458_I,-0.002323630368771337
1053922973_459_I,-0.0023223282012631067
1053922973_460_I,-0.002320881681041796
1053922973_461_I,-0.0023193404072980425
1053922973_462_I,-0.002317750621572487
1053922973_463_I,-0.002316154507436715
1053922973_464_I,-0.002314589664072905
1053922973_465_I,-0.0023130887463123097
1053922973_466_I,-0.0023116792606618325
1053922973_467_I,-0.002310383504404404
1053922973_468_I,-0.00230921863299267
1053922973_469_I,-0.0023081968396445004
1053922973_470_I,-0.0023073256302605185
1053922973_471_I,-0.0023066081764772763
1053922973_472_I,-0.002306043729797449
1053922973_473_I,-0.0023056280802482743
1053922973_474_I,-0.002305354043856368
1053922973_475_I,-0.00230521196433447
1053922973_476_I,-0.0023051902156973423
1053922973_477_I,-0.0023052756940049237
1053922973_478_I,-0.0023054542880185827
1053922973_479_I,-0.0023057113202018743
1053922973_480_I,-0.0023060319511558542
1053922973_481_I,-0.002306401542210678
1053922973_482_I,-0.0023068059724650892
1053922973_483_I,-0.0023072319080439485
1053922973_484_I,-0.0023076670227071628
1053922973_485_I,-0.002308100170172615
1053922973_486_I,-0.002308521509597526
1053922973_487_I,-0.0023089225865886307
1053922973_488_I,-0.00230929637287776
1053922973_489_I,-0.002309637268406083
1053922973_490_I,-0.002309941070011364
1053922973_491_I,-0.002310204911215206
1053922973_492_I,-0.002310427177771135
1053922973_493_I,-0.002310607403671426
1053922973_494_I,-0.002310746152234187
1053922973_495_I,-0.002310844886717116
1053922973_496_I,-0.0023109058346455972
1053922973_497_I,-0.002310931849716042
1053922973_498_I,-0.00231092627475572
1053922973_499_I,-0.0023108928088027138
1053922973_500_I,-0.002310835380927947
1053922973_501_I,-0.0023107580329685446
1053922973_502_I,-0.002310664812889783
1053922973_503_I,-0.002310559680052065
1053922973_504_I,-0.0023104464232386545
1053922973_505_I,-0.002310328591906807
1053922973_506_I,-0.0023102094407655353
1053922973_507_I,-0.0023100918874620004
1053922973_508_I,-0.002309978482878637
1053922973_509_I,-0.002309871393306415
1053922973_510_I,-0.0023097723935667416
1053922973_511_I,-0.0023096828700049205
1053922973_512_I,-0.0023096038321704575
1053922973_513_I,-0.002309535931931499
1053922973_514_I,-0.0023094794887395286
1053922973_515_I,-0.0023094345197625784
1053922973_516_I,-0.0023094007736369224
1053922973_517_I,-0.002309377766644355
1053922973_518_I,-0.0023093648202005706
1053922973_519_I,-0.002309361098635603
1053922973_520_I,-0.002309365646355611
1053922973_521_I,-0.002309377423592555
1053922973_522_I,-0.0023093953400707534
1053922973_523_I,-0.002309418286043488
1053922973_524_I,-0.0023094451602757274
1053922973_525_I,-0.002309474894667853
1053922973_526_I,-0.0023095064753277878
1053922973_527_I,-0.0023095389600031988
1053922973_528_I,-0.002309571491879976
1053922973_529_I,-0.0023096033098369217
1053922973_530_I,-0.002309633755318747
1053922973_531_I,-0.002309662276049721
1053922973_532_I,-0.002309688426858616
1053922973_533_I,-0.0023097118679221078
1053922973_534_I,-0.002309732360759081
1053922973_535_I,-0.0023097497623229806
1053922973_536_I,-0.0023097640175443216
1053922973_537_I,-0.002309775150671697
1053922973_538_I,-0.0023097832557481884
1053922973_539_I,-0.002309788486542108
1053922973_540_I,-0.0023097910462276604
1053922973_541_I,-0.002309791177083505
1053922973_542_I,-0.0023097891504465424
1053922973_543_I,-0.002309785257125488
1053922973_544_I,-0.0023097797984450033
1053922973_545_I,-0.002309773078057235
1053922973_546_I,-0.002309765394624297
1053922973_547_I,-0.00230975703544332
1053922973_548_I,-0.0023097482710556926
1053922973_549_I,-0.0023097393508545567
1053922973_550_I,-0.0023097304996798377
1053922973_551_I,-0.0023097219153683504
1053922973_552_I,-0.002309713767208017
1053922973_553_I,-0.002309706195229963
1053922973_554_I,-0.002309699310260298
1053922973_555_I,-0.0023096931946445442
1053922973_556_I,-0.0023096879035519094
1053922973_557_I,-0.0023096834667635942
1053922973_558_I,-0.0023096798908489005
1053922973_559_I,-0.0023096771616347915
1053922973_560_I,-0.0023096752468783595
1053922973_561_I,-0.002309674099057209
1053922973_562_I,-0.0023096736581995955
1053922973_563_I,-0.002309673854684085
1053922973_564_I,-0.002309674611947128
1053922973_565_I,-0.0023096758490460494
1053922973_566_I,-0.0023096774830342476
1053922973_567_I,-0.002309679431114627
1053922973_568_I,-0.002309681612546291
1053922973_569_I,-0.002309683950288073
1053922973_570_I,-0.002309686372370446
1053922973_571_I,-0.0023096888129946285
1053922973_572_I,-0.0023096912133641605
1053922973_573_I,-0.002309693522259864
1053922973_574_I,-0.0023096956963738076
1053922973_575_I,-0.0023096977004217483
1053922973_576_I,-0.0023096995070564607
1053922973_577_I,-0.002309701096606461
1053922973_578_I,-0.002309702456665916
1053922973_579_I,-0.0023097035815620873
1053922973_580_I,-0.0023097044717265004
1053922973_581_I,-0.0023097051329953435
1053922973_582_I,-0.002309705575863325
1053922973_583_I,-0.002309705814713599
1053922973_584_I,-0.0023097058670443417
1053922973_585_I,-0.0023097057527103294
1053922973_586_I,-0.002309705493195444
1053922973_587_I,-0.002309705110929515
1053922973_588_I,-0.002309704628660355
1053922973_589_I,-0.0023097040688893505
1053922973_590_I,-0.0023097034533765366
1053922973_591_I,-0.0023097028027188053
1053922973_592_I,-0.0023097021360027822
1053922973_593_I,-0.002309701470532011
1053922973_594_I,-0.0023097008216263733
1053922973_595_I,-0.0023097002024902616
1053922973_596_I,-0.0023096996241447868
1053922973_597_I,-0.0023096990954183686
1053922973_598_I,-0.0023096986229893318
1053922973_599_I,-0.002309698211473642
1053922973_600_I,-0.0023096978635506423
1053922973_601_I,-0.0023096975801195816
1053922973_602_I,-0.002309697360479814
1053922973_603_I,-0.00230969720252781
1053922973_604_I,-0.0023096971029645105
1053922973_605_I,-0.0023096970575070238
1053922973_606_I,-0.002309697061099269
1053922973_607_I,-0.00230969710811679
1053922973_608_I,-0.002309697192561628
1053922973_609_I,-0.002309697308243866
1053922973_610_I,-0.0023096974489471202
1053922973_611_I,-0.002309697608575953
1053922973_612_I,-0.002309697781283819
1053922973_613_I,-0.002309697961580784
1053922973_614_I,-0.0023096981444207785
1053922973_615_I,-0.0023096983252686933
1053922973_616_I,-0.002309698500148017
1053922973_617_I,-0.002309698665670118
1053922973_618_I,-0.0023096988190465604
1053922973_619_I,-0.0023096989580860838
1053922973_620_I,-0.0023096990811780497
1053922973_621_I,-0.002309699187264271
1053922973_622_I,-0.0023096992758011867
1053922973_623_I,-0.002309699346714355
1053922973_624_I,-0.0023096994003471865
1053922973_625_I,-0.002309699437405764
1053922973_626_I,-0.002309699458901468
1053922973_627_I,-0.0023096994660929903
1053922973_628_I,-0.0023096994604291546
1053922973_629_I,-0.0023096994434937766
1053922973_630_I,-0.00230969941695362
1053922973_631_I,-0.0023096993825103026
1053922973_632_I,-0.0023096993418568255
1053922973_633_I,-0.0023096992966392138
1053922973_634_I,-0.0023096992484235826
1053922973_635_I,-0.002309699198668779
1053922973_636_I,-0.0023096991487046078
1053922973_637_I,-0.0023096990997155138
1053922973_638_I,-0.0023096990527294845
1053922973_639_I,-0.002309699008611843
1053922973_640_I,-0.00230969896806352
1053922973_641_I,-0.0023096989316233395
1053922973_642_I,-0.002309698899673813
1053922973_643_I,-0.0023096988724499133
1053922973_644_I,-0.0023096988500502795
1053922973_645_I,-0.0023096988324503285
1053922973_646_I,-0.0023096988195167455
1053922973_647_I,-0.0023096988110228645
1053922973_648_I,-0.00230969880666448
1053922973_649_I,-0.002309698806075673
1053922973_650_I,-0.002309698808844286
1053922973_651_I,-0.0023096988145267184
1053922973_652_I,-0.0023096988226617887
1053922973_653_I,-0.002309698832783431
1053922973_654_I,-0.0023096988444320774
1053922973_655_I,-0.0023096988571645995
1053922973_656_I,-0.0023096988705627467
1053922973_657_I,-0.002309698884240052
1053922973_658_I,-0.002309698897847223
1053922973_659_I,-0.002309698911076053
1053922973_660_I,-0.0023096989236619436
1053922973_661_I,-0.0023096989353851237
1053922973_662_I,-0.002309698946070692
1053922973_663_I,-0.0023096989555876123
1053922973_664_I,-0.002309698963846801
1053922973_665_I,-0.0023096989707984588
1053922973_666_I,-0.002309698976428789
1053922973_667_I,-0.002309698980756251
1053922973_668_I,-0.0023096989838274893
1053922973_669_I,-0.002309698985713062
1053922973_670_I,-0.002309698986503104
1053922973_671_I,-0.002309698986303019
1053922973_672_I,-0.002309698985229308
1053922973_673_I,-0.0023096989834056063
1053922973_674_I,-0.0023096989809590074
1053922973_675_I,-0.0023096989780167186
1053922973_676_I,-0.0023096989747030936
1053922973_677_I,-0.0023096989711370646
1053922973_678_I,-0.002309698967429993
1053922973_679_I,-0.002309698963683937
1053922973_680_I,-0.0023096989599903296
1053922973_681_I,-0.0023096989564290586
1053922973_682_I,-0.002309698953067911
1053922973_683_I,-0.002309698949962368
1053922973_684_I,-0.0023096989471557035
1053922973_685_I,-0.0023096989446793606
1053922973_686_I,-0.002309698942553555
1053922973_687_I,-0.0023096989407880757
1053922973_688_I,-0.002309698939383234
1053922973_689_I,-0.002309698938330928
1053922973_690_I,-0.0023096989376157804
1053922973_691_I,-0.0023096989372163182
1053922973_692_I,-0.0023096989371061594
1053922973_693_I,-0.002309698937255182
1053922973_694_I,-0.002309698937630645
1053922973_695_I,-0.002309698938198245
1053922973_696_I,-0.0023096989389230892
1053922973_697_I,-0.002309698939770576
1053922973_698_I,-0.0023096989407071604
1053922973_699_I,-0.002309698941701018
1053922973_700_I,-0.00230969894272259
1053922973_701_I,-0.0023096989437450103
1053922973_702_I,-0.0023096989447444313
1053922973_703_I,-0.002309698945700232
1053922973_704_I,-0.0023096989465951332
1053922973_705_I,-0.002309698947415224
1053922973_706_I,-0.002309698948149904
1053922973_707_I,-0.0023096989487917524
1053922973_708_I,-0.002309698949336344
1053922973_709_I,-0.002309698949782014
1053922973_710_I,-0.0023096989501295833
1053922973_711_I,-0.0023096989503820584
1053922973_712_I,-0.0023096989505443175
1053922973_713_I,-0.002309698950622781
1053922973_714_I,-0.0023096989506250928
1053922973_715_I,-0.0023096989505598017
1053922973_716_I,-0.0023096989504360612
1053922973_717_I,-0.002309698950263349
1053922973_718_I,-0.0023096989500512107
1053922973_719_I,-0.0023096989498090277
1053922973_720_I,-0.002309698949545821
1053922973_721_I,-0.0023096989492700803
1053922973_722_I,-0.002309698948989628
1053922973_723_I,-0.002309698948711511
1053922973_724_I,-0.0023096989484419285
1053922973_725_I,-0.002309698948186178
1053922973_726_I,-0.0023096989479486395
1053922973_727_I,-0.0023096989477327736
1053922973_728_I,-0.0023096989475411478
1053922973_729_I,-0.002309698947375475
1053922973_730_I,-0.0023096989472366734
1053922973_731_I,-0.0023096989471249312
1053922973_732_I,-0.002309698947039788
1053922973_733_I,-0.002309698946980217
1053922973_734_I,-0.0023096989469447134
1053922973_735_I,-0.0023096989469313834
1053922973_736_I,-0.0023096989469380312
1053922973_737_I,-0.0023096989469622463
1053922973_738_I,-0.0023096989470014814
1053922973_739_I,-0.002309698947053128
1053922973_740_I,-0.002309698947114584
1053922973_741_I,-0.0023096989471833138
1053922973_742_I,-0.002309698947256899
1053922973_743_I,-0.002309698947333081
1053922973_744_I,-0.002309698947409797
1053922973_745_I,-0.0023096989474852047
1053922973_746_I,-0.002309698947557699
1053922973_747_I,-0.002309698947625926
1053922973_748_I,-0.0023096989476887814
1053922973_749_I,-0.0023096989477454128
1053922973_750_I,-0.0023096989477952067
1053922973_751_I,-0.00230969894783778
1053922973_752_I,-0.002309698947872958
1053922973_753_I,-0.0023096989479007585
1053922973_754_I,-0.002309698947921371
1053922973_755_I,-0.002309698947935127
1053922973_756_I,-0.0023096989479424817
1053922973_757_I,-0.0023096989479439874
1053922973_758_I,-0.0023096989479402708
1053922973_759_I,-0.002309698947932007
1053922973_760_I,-0.002309698947919902
1053922973_761_I,-0.0023096989479046708
1053922973_762_I,-0.002309698947887021
1053922973_763_I,-0.0023096989478676353
1053922973_764_I,-0.0023096989478471604
1053922973_765_I,-0.0023096989478261945
1053922973_766_I,-0.002309698947805281
1053922973_767_I,-0.0023096989477849
1053922973_768_I,-0.0023096989477654636
1053922973_769_I,-0.0023096989477473175
1053922973_770_I,-0.0023096989477307374
1053922973_771_I,-0.0023096989477159316
1053922973_772_I,-0.002309698947703044
1053922973_773_I,-0.0023096989476921567
1053922973_774_I,-0.0023096989476832966
1053922973_775_I,-0.0023096989476764414
1053922973_776_I,-0.0023096989476715235
1053922973_777_I,-0.0023096989476684383
1053922973_778_I,-0.0023096989476670505
1053922973_779_I,-0.0023096989476672
1053922973_780_I,-0.002309698947668711
1053922973_781_I,-0.0023096989476713934
1053922973_782_I,-0.0023096989476750537
1053922973_783_I,-0.0023096989476794954
1053922973_784_I,-0.002309698947684528
1053922973_785_I,-0.0023096989476899667
1053922973_786_I,-0.0023096989476956405
1053922973_787_I,-0.0023096989477013902
1053922973_788_I,-0.002309698947707074
1053922973_789_I,-0.0023096989477125675
1053922973_790_I,-0.002309698947717764
1053922973_791_I,-0.002309698947722577
1053922973_792_I,-0.002309698947726937
1053922973_793_I,-0.002309698947730795
1053922973_794_I,-0.002309698947734117
1053922973_795_I,-0.0023096989477368875
1053922973_796_I,-0.0023096989477391027
1053922973_797_I,-0.002309698947740775
1053922973_798_I,-0.0023096989477419264
1053922973_799_I,-0.002309698947742589
1053922973_800_I,-0.002309698947742802
1053922973_801_I,-0.0023096989477426125
1053922973_802_I,-0.002309698947742068
1053922973_803_I,-0.002309698947741223
1053922973_804_I,-0.00230969894774013
1053922973_805_I,-0.002309698947738843
1053922973_806_I,-0.0023096989477374126
1053922973_807_I,-0.0023096989477358896
1053922973_808_I,-0.002309698947734318
1053922973_809_I,-0.0023096989477327415
1053922973_810_I,-0.002309698947731196
1053922973_811_I,-0.0023096989477297144
1053922973_812_I,-0.002309698947728324
1053922973_813_I,-0.002309698947727047
1053922973_814_I,-0.0023096989477258997
1053922973_815_I,-0.0023096989477248953
1053922973_816_I,-0.00230969894772404
1053922973_817_I,-0.0023096989477233384
1053922973_818_I,-0.0023096989477227894
1053922973_819_I,-0.002309698947722388
1053922973_820_I,-0.002309698947722129
1053922973_821_I,-0.0023096989477220014
1053922973_822_I,-0.002309698947721994
1053922973_823_I,-0.002309698947722094
1053922973_824_I,-0.0023096989477222876
1053922973_825_I,-0.0023096989477225604
1053922973_826_I,-0.0023096989477228973
1053922973_827_I,-0.002309698947723284
1053922973_828_I,-0.002309698947723706
1053922973_829_I,-0.00230969894772415
1053922973_830_I,-0.0023096989477246034
1053922973_831_I,-0.002309698947725055
1053922973_832_I,-0.002309698947725494
1053922973_833_I,-0.0023096989477259123
1053922973_834_I,-0.0023096989477263013
1053922973_835_I,-0.002309698947726656
1053922973_836_I,-0.0023096989477269705
1053922973_837_I,-0.0023096989477272415
1053922973_838_I,-0.0023096989477274675
1053922973_839_I,-0.0023096989477276457
1053922973_840_I,-0.0023096989477277776
1053922973_841_I,-0.0023096989477278626
1053922973_842_I,-0.002309698947727903
1053922973_843_I,-0.0023096989477279016
1053922973_844_I,-0.002309698947727861
1053922973_845_I,-0.002309698947727784
1053922973_846_I,-0.002309698947727675
1053922973_847_I,-0.0023096989477275395
1053922973_848_I,-0.0023096989477273803
1053922973_849_I,-0.0023096989477272025
1053922973_850_I,-0.0023096989477270117
1053922973_851_I,-0.0023096989477268113
1053922973_852_I,-0.0023096989477266075
1053922973_853_I,-0.0023096989477264045
1053922973_854_I,-0.0023096989477262063
1053922973_855_I,-0.002309698947726019
1053922973_856_I,-0.0023096989477258455
1053922973_857_I,-0.0023096989477256907
1053922973_858_I,-0.002309698947725558
1053922973_859_I,-0.0023096989477254513
1053922973_860_I,-0.002309698947725374
1053922973_861_I,-0.0023096989477253286
1053922973_862_I,-0.0023096989477253177
1053922973_863_I,-0.0023096989477253433
1053922973_864_I,-0.0023096989477254066
1053922973_865_I,-0.002309698947725508
1053922973_866_I,-0.0023096989477256486
1053922973_867_I,-0.0023096989477258264
1053922973_868_I,-0.0023096989477260407
1053922973_869_I,-0.0023096989477262896
1053922973_870_I,-0.002309698947726568
1053922973_871_I,-0.0023096989477268733
1053922973_872_I,-0.0023096989477272003
1053922973_873_I,-0.0023096989477275416
1053922973_874_I,-0.0023096989477278907
1053922973_875_I,-0.0023096989477282403
1053922973_876_I,-0.0023096989477285803
1053922973_877_I,-0.0023096989477289012
1053922973_878_I,-0.0023096989477291935
1053922973_879_I,-0.0023096989477294455
1053922973_880_I,-0.0023096989477296476
1053922973_881_I,-0.0023096989477297877
1053922973_882_I,-0.0023096989477298553
1053922973_883_I,-0.00230969894772984
1053922973_884_I,-0.002309698947729733
1053922973_885_I,-0.002309698947729526
1053922973_886_I,-0.002309698947729212
1053922973_887_I,-0.002309698947728787
1053922973_888_I,-0.0023096989477282477
1053922973_889_I,-0.0023096989477275945
1053922973_890_I,-0.0023096989477268304
1053922973_891_I,-0.0023096989477259613
1053922973_892_I,-0.002309698947724998
1053922973_893_I,-0.0023096989477239525
1053922973_894_I,-0.002309698947722843
1053922973_895_I,-0.00230969894772169
1053922973_896_I,-0.0023096989477205177
1053922973_897_I,-0.0023096989477193555
1053922973_898_I,-0.002309698947718234
1053922973_899_I,-0.002309698947717188
1053922973_900_I,-0.002309698947716254
1053922973_901_I,-0.002309698947715471
1053922973_902_I,-0.0023096989477148786
1053922973_903_I,-0.002309698947714516
1053922973_904_I,-0.0023096989477144215
1053922973_905_I,-0.0023096989477146323
1053922973_906_I,-0.0023096989477151813
1053922973_907_I,-0.002309698947716097
1053922973_908_I,-0.0023096989477174013
1053922973_909_I,-0.00230969894771911
1053922973_910_I,-0.0023096989477212294
1053922973_911_I,-0.0023096989477237565
1053922973_912_I,-0.002309698947726677
1053922973_913_I,-0.0023096989477299633
1053922973_914_I,-0.0023096989477335776
1053922973_915_I,-0.0023096989477374655
1053922973_916_I,-0.002309698947741561
1053922973_917_I,-0.0023096989477457822
1053922973_918_I,-0.0023096989477500354
1053922973_919_I,-0.0023096989477542134
1053922973_920_I,-0.0023096989477581964
1053922973_921_I,-0.002309698947761856
1053922973_922_I,-0.002309698947765055
1053922973_923_I,-0.002309698947767651
1053922973_924_I,-0.002309698947769499
1053922973_925_I,-0.002309698947770456
1053922973_926_I,-0.0023096989477703832
1053922973_927_I,-0.002309698947769151
1053922973_928_I,-0.0023096989477666445
1053922973_929_I,-0.0023096989477627674
1053922973_930_I,-0.002309698947757446
1053922973_931_I,-0.0023096989477506364
1053922973_932_I,-0.0023096989477423275
1053922973_933_I,-0.0023096989477325454
1053922973_934_I,-0.0023096989477213595
1053922973_935_I,-0.0023096989477088834
1053922973_936_I,-0.0023096989476952797
1053922973_937_I,-0.0023096989476807613
1053922973_938_I,-0.0023096989476655916
1053922973_939_I,-0.0023096989476500854
1053922973_940_I,-0.0023096989476346056
1053922973_941_I,-0.0023096989476195616
1053922973_942_I,-0.0023096989476054024
1053922973_943_I,-0.0023096989475926114
1053922973_944_I,-0.0023096989475816982
1053922973_945_I,-0.0023096989475731877
1053922973_946_I,-0.002309698947567608
1053922973_947_I,-0.00230969894756548
1053922973_948_I,-0.002309698947567298
1053922973_949_I,-0.002309698947573517
1053922973_950_I,-0.0023096989475845345
1053922973_951_I,-0.002309698947600673
1053922973_952_I,-0.002309698947622163
1053922973_953_I,-0.0023096989476491217
1053922973_954_I,-0.0023096989476815402
1053922973_955_I,-0.0023096989477192644
1053922973_956_I,-0.002309698947761983
1053922973_957_I,-0.002309698947809212
1053922973_958_I,-0.0023096989478602887
1053922973_959_I,-0.0023096989479143666
1053922973_960_I,-0.0023096989479704107
1053922973_961_I,-0.0023096989480272034
1053922973_962_I,-0.002309698948083353
1053922973_963_I,-0.0023096989481373067
1053922973_964_I,-0.0023096989481873717
1053922973_965_I,-0.0023096989482317416
1053922973_966_I,-0.0023096989482685295
1053922973_967_I,-0.002309698948295806
1053922973_968_I,-0.0023096989483116443
1053922973_969_I,-0.0023096989483141744
1053922973_970_I,-0.002309698948301634
1053922973_971_I,-0.0023096989482724335
1053922973_972_I,-0.0023096989482252147
1053922973_973_I,-0.002309698948158921
1053922973_974_I,-0.0023096989480728583
1053922973_975_I,-0.0023096989479667635
1053922973_976_I,-0.002309698947840864
1053922973_977_I,-0.002309698947695935
1053922973_978_I,-0.0023096989475333497
1053922973_979_I,-0.002309698947355117
1053922973_980_I,-0.002309698947163912
1053922973_981_I,-0.002309698946963092
1053922973_982_I,-0.00230969894675669
1053922973_983_I,-0.0023096989465494033
1053922973_984_I,-0.002309698946346547
1053922973_985_I,-0.0023096989461539987
1053922973_986_I,-0.0023096989459781138
1053922973_987_I,-0.0023096989458256225
1053922973_988_I,-0.002309698945703496
1053922973_989_I,-0.002309698945618802
1053922973_990_I,-0.002309698945578524
1053922973_991_I,-0.002309698945589375
1053922973_992_I,-0.0023096989456575815
1053922973_993_I,-0.002309698945788662
1053922973_994_I,-0.0023096989459871903
1053922973_995_I,-0.002309698946256556
1053922973_996_I,-0.0023096989465987263
1053922973_997_I,-0.002309698947014011
1053922973_998_I,-0.002309698947500844
1053922973_999_I,-0.0023096989480555874
1053922973_1000_I,-0.00230969894867236
1053922973_1001_I,-0.0023096989493429075
1053922973_1002_I,-0.0023096989500565154
1053922973_1003_I,-0.0023096989507999785
1053922973_1004_I,-0.0023096989515576254
1053922973_1005_I,-0.002309698952311419
1053922973_1006_I,-0.0023096989530411267
1053922973_1007_I,-0.0023096989537245687
1053922973_1008_I,-0.0023096989543379518
1053922973_1009_I,-0.0023096989548562897
1053922973_1010_I,-0.002309698955253901
1053922973_1011_I,-0.002309698955504998
1053922973_1012_I,-0.002309698955584343
1053922973_1013_I,-0.0023096989554679875
1053922973_1014_I,-0.0023096989551340532
1053922973_1015_I,-0.0023096989545635786
1053922973_1016_I,-0.00230969895374138
1053922973_1017_I,-0.002309698952656934
1053922973_1018_I,-0.002309698951305245
1053922973_1019_I,-0.0023096989496876816
1053922973_1020_I,-0.00230969894781275
1053922973_1021_I,-0.00230969894569678
1053922973_1022_I,-0.0023096989433644935
1053922973_1023_I,-0.002309698940849429
1053922973_1024_I,-0.0023096989381941806
1053922973_1025_I,-0.0023096989354504404
1053922973_1026_I,-0.0023096989326788003
1053922973_1027_I,-0.0023096989299483
1053922973_1028_I,-0.002309698927335695
1053922973_1029_I,-0.0023096989249244263
1053922973_1030_I,-0.00230969892280329
1053922973_1031_I,-0.002309698921064791
1053922973_1032_I,-0.002309698919803193
1053922973_1033_I,-0.002309698919112274
1053922973_1034_I,-0.0023096989190828088
1053922973_1035_I,-0.002309698919799809
1053922973_1036_I,-0.00230969892133956
1053922973_1037_I,-0.0023096989237665158
1053922973_1038_I,-0.0023096989271300995
1053922973_1039_I,-0.0023096989314614997
1053922973_1040_I,-0.002309698936770527
1053922973_1041_I,-0.002309698943042636
1053922973_1042_I,-0.002309698950236206
1053922973_1043_I,-0.0023096989582801807
1053922973_1044_I,-0.0023096989670721812
1053922973_1045_I,-0.0023096989764771992
1053922973_1046_I,-0.0023096989863269765
1053922973_1047_I,-0.0023096989964201775
1053922973_1048_I,-0.0023096990065234516
1053922973_1049_I,-0.0023096990163734643
1053922973_1050_I,-0.00230969902567998
1053922973_1051_I,-0.0023096990341300314
1053922973_1052_I,-0.0023096990413932297
1053922973_1053_I,-0.0023096990471281912
1053922973_1054_I,-0.0023096990509900847
1053922973_1055_I,-0.002309699052639219
1053922973_1056_I,-0.0023096990517505957
1053922973_1057_I,-0.0023096990480242943
1053922973_1058_I,-0.002309699041196518
1053922973_1059_I,-0.002309699031051107
1053922973_1060_I,-0.0023096990174312614
1053922973_1061_I,-0.0023096990002512106
1053922973_1062_I,-0.0023096989795075044
1053922973_1063_I,-0.0023096989552895872
1053922973_1064_I,-0.0023096989277892836
1053922973_1065_I,-0.0023096988973088125
1053922973_1066_I,-0.002309698864266932
1053922973_1067_I,-0.0023096988292028086
1053922973_1068_I,-0.0023096987927772312
1053922973_1069_I,-0.0023096987557707912
1053922973_1070_I,-0.002309698719078695
1053922973_1071_I,-0.0023096986837019087
1053922973_1072_I,-0.0023096986507344128
1053922973_1073_I,-0.0023096986213463886
1053922973_1074_I,-0.0023096985967632736
1053922973_1075_I,-0.0023096985782407
1053922973_1076_I,-0.002309698567035449
1053922973_1077_I,-0.002309698564372677
1053922973_1078_I,-0.002309698571409794
1053922973_1079_I,-0.0023096985891975204
1053922973_1080_I,-0.0023096986186387715
1053922973_1081_I,-0.0023096986604461815
1053922973_1082_I,-0.002309698715099198
1053922973_1083_I,-0.0023096987828018227
1053922973_1084_I,-0.0023096988634421813
1053922973_1085_I,-0.0023096989565552185
1053922973_1086_I,-0.0023096990612898913
1053922973_1087_I,-0.0023096991763822947
1053922973_1088_I,-0.0023096993001361786
1053922973_1089_I,-0.0023096994304123057
1053922973_1090_I,-0.002309699564628058
1053922973_1091_I,-0.002309699699768608
1053922973_1092_I,-0.002309699832410833
1053922973_1093_I,-0.002309699958760971
1053922973_1094_I,-0.002309700074706784
1053922973_1095_I,-0.002309700175884709
1053922973_1096_I,-0.0023097002577621476
1053922973_1097_I,-0.002309700315734673
1053922973_1098_I,-0.0023097003452375005
1053922973_1099_I,-0.002309700341870135
1053922973_1100_I,-0.0023097003015325945
1053922973_1101_I,-0.002309700220571132
1053922973_1102_I,-0.00230970009593085
1053922973_1103_I,-0.0023096999253120836
1053922973_1104_I,-0.0023096997073269567
1053922973_1105_I,-0.00230969944165202
1053922973_1106_I,-0.002309699129172504
1053922973_1107_I,-0.0023096987721133205
1053922973_1108_I,-0.0023096983741517307
1053922973_1109_I,-0.002309697940506384
1053922973_1110_I,-0.002309697477997411
1053922973_1111_I,-0.002309696995072317
1053922973_1112_I,-0.0023096965017926595
1053922973_1113_I,-0.002309696009776883
1053922973_1114_I,-0.0023096955320952473
1053922973_1115_I,-0.002309695083113518
1053922973_1116_I,-0.002309694678283012
1053922973_1117_I,-0.002309694333875703
1053922973_1118_I,-0.0023096940666643443
1053922973_1119_I,-0.002309693893549037
1053922973_1120_I,-0.002309693831133222
1053922973_1121_I,-0.002309693895253815
1053922973_1122_I,-0.002309694100471994
1053922973_1123_I,-0.002309694459533006
1053922973_1124_I,-0.0023096949828052458
1053922973_1125_I,-0.0023096956777107235
1053922973_1126_I,-0.002309696548160776
1053922973_1127_I,-0.0023096975940125396
1053922973_1128_I,-0.0023096988105631103
1053922973_1129_I,-0.0023097001880994874
1053922973_1130_I,-0.0023097017115232482
1053922973_1131_I,-0.0023097033600693283
1053922973_1132_I,-0.002309705107138288
1053922973_1133_I,-0.0023097069202609195
1053922973_1134_I,-0.002309708761212963
1053922973_1135_I,-0.0023097105862959918
1053922973_1136_I,-0.002309712346798204
1053922973_1137_I,-0.002309713989645813
1053922973_1138_I,-0.0023097154582520686
1053922973_1139_I,-0.0023097166935665604
1053922973_1140_I,-0.0023097176353224533
1053922973_1141_I,-0.00230971822347372
1053922973_1142_I,-0.0023097183998082717
1053922973_1143_I,-0.0023097181097163438
1053922973_1144_I,-0.002309717304086567
1053922973_1145_I,-0.002309715941295041
1053922973_1146_I,-0.0023097139892455975
1053922973_1147_I,-0.0023097114274123814
1053922973_1148_I,-0.0023097082488291944
1053922973_1149_I,-0.002309704461963851
1053922973_1150_I,-0.002309700092410366
1053922973_1151_I,-0.0023096951843273
1053922973_1152_I,-0.002309689801547344
1053922973_1153_I,-0.002309684028281334
1053922973_1154_I,-0.0023096779693396693
1053922973_1155_I,-0.0023096717497956983
1053922973_1156_I,-0.0023096655140192345
1053922973_1157_I,-0.0023096594240140747
1053922973_1158_I,-0.0023096536570013705
1053922973_1159_I,-0.002309648402200951
1053922973_1160_I,-0.0023096438567752255
1053922973_1161_I,-0.002309640220915086
1053922973_1162_I,-0.002309637692064074
1053922973_1163_I,-0.0023096364582958773
1053922973_1164_I,-0.0023096366908806256
1053922973_1165_I,-0.0023096385360971694
1053922973_1166_I,-0.002309642106371122
1053922973_1167_I,-0.002309647470841447
1053922973_1168_I,-0.002309654645481214
1053922973_1169_I,-0.0023096635829202906
1053922973_1170_I,-0.0023096741621384557
1053922973_1171_I,-0.0023096861782161754
1053922973_1172_I,-0.0023096993323462917
1053922973_1173_I,-0.0023097132223226214
1053922973_1174_I,-0.0023097273337302476
1053922973_1175_I,-0.0023097410320667053
1053922973_1176_I,-0.002309753556022839
1053922973_1177_I,-0.002309764012146684
1053922973_1178_I,-0.0023097713711031694
1053922973_1179_I,-0.0023097744657270933
1053922973_1180_I,-0.002309771991046983
1053922973_1181_I,-0.002309762506434179
1053922973_1182_I,-0.0023097444400057773
1053922973_1183_I,-0.0023097160953837533
1053922973_1184_I,-0.0023096756608877046
1053922973_1185_I,-0.002309621221217944
1053922973_1186_I,-0.002309550771671934
1053922973_1187_I,-0.002309462234932778
1053922973_1188_I,-0.0023093534804740634
1053922973_1189_I,-0.0023092223466387465
1053922973_1190_I,-0.002309066665466633
1053922973_1191_I,-0.002308884290360165
1053922973_1192_I,-0.002308673126686579
1053922973_1193_I,-0.0023084311654118133
1053922973_1194_I,-0.002308156519844167
1053922973_1195_I,-0.0023078474655309857
1053922973_1196_I,-0.002307502483297537
1053922973_1197_I,-0.0023071203053425726
1053922973_1198_I,-0.0023066999642092786
1053922973_1199_I,-0.002306240844333517
1053922973_1200_I,-0.0023057427357341146
1053922973_1201_I,-0.0023052058892535795
1053922973_1202_I,-0.0023046310725834697
1053922973_1203_I,-0.0023040196261184115
1053922973_1204_I,-0.0023033735174781515
1053922973_1205_I,-0.0023026953933197327
1053922973_1206_I,-0.002301988626833407
1053922973_1207_I,-0.0023012573590786263
1053922973_1208_I,-0.0023005065320752926
1053922973_1209_I,-0.0022997419113302397
1053922973_1210_I,-0.002298970095264972
1053922973_1211_I,-0.002298198508836554
1053922973_1212_I,-0.0022974353785284226
1053922973_1213_I,-0.002296689685849358
1053922973_1214_I,-0.002295971096532035
1053922973_1215_I,-0.0022952898627799814
1053922973_1216_I,-0.002294656696182592
1053922973_1217_I,-0.0022940826093081606
1053922973_1218_I,-0.002293578724496955
1053922973_1219_I,-0.0022931560490087933
1053922973_1220_I,-0.0022928252164268765
1053922973_1221_I,-0.0022925961950723507
1053922973_1222_I,-0.002292477965128512
1053922973_1223_I,-0.0022924781671921314
1053922973_1224_I,-0.0022926027260404343
1053922973_1225_I,-0.0022928554545006857
1053922973_1226_I,-0.0022932376434065525
1053922973_1227_I,-0.0022937476446899833
1053922973_1228_I,-0.002294380455654641
1053922973_1229_I,-0.002295127313368673
1053922973_1230_I,-0.0022959753088590456
1053922973_1231_I,-0.0022969070313427708
1053922973_1232_I,-0.0022979002530480984
1053922973_1233_I,-0.0022989276652200276
1053922973_1234_I,-0.0022999566756328046
1053922973_1235_I,-0.002300949277317766
1053922973_1236_I,-0.0023018619972366133
1053922973_1237_I,-0.0023026459322771213
1053922973_1238_I,-0.002303246878221792
1053922973_1239_I,-0.0023036055552558203
1053922973_1240_I,-0.002303657931171117
1053922973_1241_I,-0.0023033356407384763
1053922973_1242_I,-0.002302566496831219
1053922973_1243_I,-0.0023012750858837534
1053922973_1244_I,-0.002299383437274602
1053922973_1245_I,-0.002296811753378085
1053922973_1246_I,-0.0022934791845014495
1053922973_1247_I,-0.002289304630908859
1053922973_1248_I,-0.0022842075528312915
1053922973_1249_I,-0.002278108768932846
1053922973_1250_I,-0.002270931224207154
1053922973_1251_I,-0.0022626007096401024
1053922973_1252_I,-0.002253046518028784
1053922973_1253_I,-0.0022422020228911803
1053922973_1254_I,-0.0022300051702475315
1053922973_1255_I,-0.0022163988760392087
1053922973_1256_I,-0.0022013313249371717
1053922973_1257_I,-0.0021847561691676455
1053922973_1258_I,-0.0021666326286586468
1053922973_1259_I,-0.0021469254962199046
1053922973_1260_I,-0.002125605053562622
1053922973_1261_I,-0.002102646905713696
1053922973_1262_I,-0.0020780317427663538
1053922973_1263_I,-0.002051745038933597
1053922973_1264_I,-0.0020237766995418387
1053922973_1265_I,-0.001994120666938134
1053922973_1266_I,-0.001962774496311552
1053922973_1267_I,-0.001929738912179027
1053922973_1268_I,-0.0018950173557940604
1053922973_1269_I,-0.0018586155330408873
1053922973_1270_I,-0.0018205409715162369
1053922973_1271_I,-0.0017808025945146033
1053922973_1272_I,-0.0017394103185588083
1053922973_1273_I,-0.00169637467999147
1053922973_1274_I,-0.0016517064949979436
1053922973_1275_I,-0.0016054165562973744
1053922973_1276_I,-0.001557515368642048
1053922973_1277_I,-0.001508012924228768
1053922973_1278_I,-0.0014569185181681243
1053922973_1279_I,-0.0014042406032928267
1053922973_1280_I,-0.0013499866828255004
1053922973_1281_I,-0.0012941632387765115
1053922973_1282_I,-0.0012367756934070966
1053922973_1283_I,-0.0011778284006727334
1053922973_1284_I,-0.0011173246642539644
1053922973_1285_I,-0.0010552667785819886
1053922973_1286_I,-0.0009916560891674335
1053922973_1287_I,-0.0009264930685343542
1053922973_1288_I,-0.0008597774041379265
1053922973_1289_I,-0.0007915080947929181
1053922973_1290_I,-0.0007216835523496568
1053922973_1291_I,-0.0006503017056135287
1053922973_1292_I,-0.0005773601038017192
1053922973_1293_I,-0.0005028560171560372
1053922973_1294_I,-0.0004267865326728365
1053922973_1295_I,-0.00034914864326064416
1053922973_1296_I,-0.0002699393289843329
1053922973_1297_I,-0.00018915562939382041
1053922973_1298_I,-0.00010679470625858881
1053922973_1299_I,-2.2853896331225756e-05
1053922973_1300_I,6.266924596079902e-05
1053922973_1301_I,0.00014977691574917428
1053922973_1302_I,0.0002384710345235658
1053922973_1303_I,0.0003287532359520456
1053922973_1304_I,0.0004206248600312986
1053922973_1305_I,0.0005140869547591448
1053922973_1306_I,0.0006091402844382643
1053922973_1307_I,0.0007057853436666175
1053922973_1308_I,0.0008040223760447403
1053922973_1309_I,0.0009038513966302043
1053922973_1310_I,0.0010052722171922238
1053922973_1311_I,0.0011082844733615272
1053922973_1312_I,0.001212887652829053
1053922973_1313_I,0.0013190811238184912
1053922973_1314_I,0.0014268641631391007
1053922973_1315_I,0.0015362359832135066
1053922973_1316_I,0.0016471957575675397
1053922973_1317_I,0.0017597426443629782
1053922973_1318_I,0.0018738758076469741
1053922973_1319_I,0.001989594436081924
1053922973_1320_I,0.00210689775900473
1053922973_1321_I,0.002225785059743479
1053922973_1322_I,0.002346255686191273
1053922973_1323_I,0.002468309058700562
1053922973_1324_I,0.0025919446754162152
1053922973_1325_I,0.0027171621152115165
1053922973_1326_I,0.0028439610384281442
1053922973_1327_I,0.0029723411856492645
1053922973_1328_I,0.003102302374754409
1053922973_1329_I,0.0032338444965163333
1053922973_1330_I,0.0033669675090042695
1053922973_1331_I,0.003501671431055545
1053922973_1332_I,0.003637956335069344
1053922973_1333_I,0.0037758223393632505
1053922973_1334_I,0.003915269600315963
1053922973_1335_I,0.004056298304499227
1053922973_1336_I,0.004198908660979268
1053922973_1337_I,0.0043431008939437315
1053922973_1338_I,0.004488875235785123
1053922973_1339_I,0.00463623192074656
1053922973_1340_I,0.004785171179210996
1053922973_1341_I,0.004935693232691492
1053922973_1342_I,0.005087798289557897
1053922973_1343_I,0.005241486541514976
1053922973_1344_I,0.005396758160828641
1053922973_1345_I,0.005553613298280895
1053922973_1346_I,0.005712052081820396
1053922973_1347_I,0.0058720746158641875
1053922973_1348_I,0.006033680981197255
1053922973_1349_I,0.006196871235409895
1053922973_1350_I,0.006361645413808417
1053922973_1351_I,0.00652800353073219
1053922973_1352_I,0.006695945581209382
1053922973_1353_I,0.006865471542884572
1053922973_1354_I,0.0070365813781536925
1053922973_1355_I,0.0072092750364449966
1053922973_1356_I,0.007383552456588929
1053922973_1357_I,0.00755941356922466
1053922973_1358_I,0.007736858299196011
1053922973_1359_I,0.00791588656789513
1053922973_1360_I,0.008096498295517436
1053922973_1361_I,0.008278693403196776
1053922973_1362_I,0.00846247181499455
1053922973_1363_I,0.008647833459721161
1053922973_1364_I,0.008834778272572265
1053922973_1365_I,0.009023306196565866
1053922973_1366_I,0.009213417183769435
1053922973_1367_I,0.009405111196308654
1053922973_1368_I,0.009598388207151648
1053922973_1369_I,0.009793248200664111
1053922973_1370_I,0.00998969117293228
1053922973_1371_I,0.010187717131851832
1053922973_1372_I,0.01038732609698192
1053922973_1373_I,0.010588518099164716
1053922973_1374_I,0.010791293179911893
1053922973_1375_I,0.010995651390560784
1053922973_1376_I,0.011201592791204572
1053922973_1377_I,0.011409117449402897
1053922973_1378_I,0.011618225438681405
1053922973_1379_I,0.01182891683683184
1053922973_1380_I,0.012041191724027423
1053922973_1381_I,0.012255050180772234
1053922973_1382_I,0.012470492285707766
1053922973_1383_I,0.012687518113304692
1053922973_1384_I,0.012906127731473123
1053922973_1385_I,0.013126321199130037
1053922973_1386_I,0.013348098563767905
1053922973_1387_I,0.013571459859073886
1053922973_1388_I,0.01379640510265395
1053922973_1389_I,0.014022934293921136
1053922973_1390_I,0.014251047412211018
1053922973_1391_I,0.014480744415190648
1053922973_1392_I,0.014712025237629269
1053922973_1393_I,0.014944889790599469
1053922973_1394_I,0.015179337961176311
1053922973_1395_I,0.015415369612698937
1053922973_1396_I,0.015652984585654017
1053922973_1397_I,0.015892182699233027
1053922973_1398_I,0.016132963753605754
1053922973_1399_I,0.01637532753294028
1053922973_1400_I,0.01661927380918508
1053922973_1401_I,0.016864802346611904
1053922973_1402_I,0.017111912907098976
1053922973_1403_I,0.017360605256112785
1053922973_1404_I,0.017610879169323954
1053922973_1405_I,0.017862734439768324
1053922973_1406_I,0.018116170885439188
1053922973_1407_I,0.018371188357170973
1053922973_1408_I,0.018627786746649375
1053922973_1409_I,0.018885965994358413
1053922973_1410_I,0.019145726097252187
1053922973_1411_I,0.01940706711591897
1053922973_1412_I,0.019669989180988747
1053922973_1413_I,0.01993449249852322
1053922973_1414_I,0.020200577354120435
1053922973_1415_I,0.02046824411546552
1053922973_1416_I,0.02073749323306515
1053922973_1417_I,0.021008325238917287
1053922973_1418_I,0.021280740742889666
1053922973_1419_I,0.02155474042661179
1053922973_1420_I,0.02183032503472496
1053922973_1421_I,0.02210749536338429
1053922973_1422_I,0.02238625224596499
1053922973_1423_I,0.022666596535991915
1053922973_1424_I,0.022948529087386628
1053922973_1425_I,0.023232050732208354
1053922973_1426_I,0.023517162256153152
1053922973_1427_I,0.02380386437216829
1053922973_1428_I,0.024092157692633606
1053922973_1429_I,0.024382042700656897
1053922973_1430_I,0.024673519721123485
1053922973_1431_I,0.024966588892228355
1053922973_1432_I,0.02526125013829959
1053922973_1433_I,0.025557503144791324
1053922973_1434_I,0.02585534733637966
1053922973_1435_I,0.026154781859132996
1053922973_1436_I,0.026455805567745336
1053922973_1437_I,0.026758417018814748
1053922973_1438_I,0.027062614471115822
1053922973_1439_I,0.02736839589375241
1053922973_1440_I,0.027675758982983245
1053922973_1441_I,0.027984701188386345
1053922973_1442_I,0.028295219748867728
1053922973_1443_I,0.02860731173882561
1053922973_1444_I,0.028920974124553668
1053922973_1445_I,0.029236203830707803
1053922973_1446_I,0.029552997816372578
1053922973_1447_I,0.029871353159950147
1053922973_1448_I,0.030191267151761163
1053922973_1449_I,0.030512737392899305
1053922973_1450_I,0.030835761898526368
1053922973_1451_I,0.031160339203440683
1053922973_1452_I,0.03148646846740767
1053922973_1453_I,0.031814149577417086
1053922973_1454_I,0.032143383243738645
1053922973_1455_I,0.03247417108639654
1053922973_1456_I,0.032806515708486236
1053922973_1457_I,0.03314042075262474
1053922973_1458_I,0.03347589093677005
1053922973_1459_I,0.03381293206567694
1053922973_1460_I,0.03415155101438438
1053922973_1461_I,0.03449175568036326
1053922973_1462_I,0.03483355490129675
1053922973_1463_I,0.03517695833592586
1053922973_1464_I,0.03552197630596927
1053922973_1465_I,0.03586861959781918
1053922973_1466_I,0.0362168992235193
1053922973_1467_I,0.036566826141438
1053922973_1468_I,0.03691841093804867
1053922973_1469_I,0.0372716634733032
1053922973_1470_I,0.03762659249321357
1053922973_1471_I,0.03798320521441765
1053922973_1472_I,0.03834150688666939
1053922973_1473_I,0.038701500340330076
1053922973_1474_I,0.03906318552701161
1053922973_1475_I,0.039426559062497056
1053922973_1476_I,0.03979161378190009
1053922973_1477_I,0.04015833831768281
1053922973_1478_I,0.04052671671159167
1053922973_1479_I,0.040896728071755366
1053922973_1480_I,0.04126834628608156
1053922973_1481_I,0.04164153980265962
1053922973_1482_I,0.04201627148710044
1053922973_1483_I,0.042392498565604605
1053922973_1484_I,0.04277017266103978
1053922973_1485_I,0.04314923992743232
1053922973_1486_I,0.043529641286056284
1053922973_1487_I,0.043911312763769625
1053922973_1488_I,0.04429418593145647
1053922973_1489_I,0.04467818843745964
1053922973_1490_I,0.04506324462782415
1053922973_1491_I,0.04544927624214004
1053922973_1492_I,0.04583620317091762
1053922973_1493_I,0.04622394425792065
1053922973_1494_I,0.046612418128918774
1053922973_1495_I,0.04700154402709656
1053922973_1496_I,0.04739124263502046
1053922973_1497_I,0.047781436863661986
1053922973_1498_I,0.048172052590419616
1053922973_1499_I,0.048563019330202836
1053922973_1500_I,0.04895427082623925
1053922973_1501_I,0.04934574555015385
1053922973_1502_I,0.04973738710388901
1053922973_1503_I,0.05012914451904992
1053922973_1504_I,0.05052097245216411
1053922973_1505_I,0.05091283127705012
1053922973_1506_I,0.05130468707793327
1053922973_1507_I,0.051696511549081156
1053922973_1508_I,0.05208828180852808
1053922973_1509_I,0.05247998013490345
1053922973_1510_I,0.052871593637471924
1053922973_1511_I,0.05326311387024406
1053922973_1512_I,0.05365453640144242
1053922973_1513_I,0.05404586034973605
1053922973_1514_I,0.054437087898515917
1053922973_1515_I,0.05482822379910893
1053922973_1516_I,0.05521927487325402
1053922973_1517_I,0.055610249524427044
1053922973_1518_I,0.05600115726673475
1053922973_1519_I,0.05639200827913952
1053922973_1520_I,0.05678281299175308
1053922973_1521_I,0.05717358170988102
1053922973_1522_I,0.05756432428043336
1053922973_1523_I,0.0579550498042621
1053922973_1524_I,0.05834576639696152
1053922973_1525_I,0.05873648099968455
1053922973_1526_I,0.05912719924059948
1053922973_1527_I,0.05951792534674166
1053922973_1528_I,0.05990866210520936
1053922973_1529_I,0.06029941087191238
1053922973_1530_I,0.06069017162540548
1053922973_1531_I,0.0610809430627245
1053922973_1532_I,0.061471722733585844
1053922973_1533_I,0.06186250720880791
1053922973_1534_I,0.06225329227836031
1053922973_1535_I,0.06264407317404101
1053922973_1536_I,0.06303484481141983
1053922973_1537_I,0.06342560204536694
1053922973_1538_I,0.063816339933208
1053922973_1539_I,0.06420705399931385
1053922973_1540_I,0.0645977404947472
1053922973_1541_I,0.06498839664545465
1053922973_1542_I,0.06537902088242004
1053922973_1543_I,0.06576961304718984
1053922973_1544_I,0.06616017456625621
1053922973_1545_I,0.06655070858794702
1053922973_1546_I,0.06694122007573729
1053922973_1547_I,0.06733171585227471
1053922973_1548_I,0.0677222045889134
1053922973_1549_I,0.06811269673618464
1053922973_1550_I,0.06850320439140961
1053922973_1551_I,0.06889374110058032
1053922973_1552_I,0.06928432159270545
1053922973_1553_I,0.0696749614460344
1053922973_1554_I,0.0700656766869289
1053922973_1555_I,0.07045648332363762
1053922973_1556_I,0.07084739681882542
1053922973_1557_I,0.07123843150639579
1053922973_1558_I,0.07162959995989147
1053922973_1559_I,0.072020912321532
1053922973_1560_I,0.07241237560270732
1053922973_1561_I,0.07280399296844862
1053922973_1562_I,0.07319576301999327
1053922973_1563_I,0.07358767909099323
1053922973_1564_I,0.07397972857413582
1053922973_1565_I,0.07437189229588943
1053922973_1566_I,0.0747641439577049
1053922973_1567_I,0.0751564496622391
1053922973_1568_I,0.07554876754297528
1053922973_1569_I,0.07594104751495401
1053922973_1570_I,0.07633323116316772
1053922973_1571_I,0.07672525178349525
1053922973_1572_I,0.07711703458885703
1053922973_1573_I,0.07750849709057567
1053922973_1574_I,0.07789954966176903
1053922973_1575_I,0.07829009628604855
1053922973_1576_I,0.07868003549093727
1053922973_1577_I,0.07906926146138213
1053922973_1578_I,0.07945766532467112
1053922973_1579_I,0.07984513659417132
1053922973_1580_I,0.0802315647558066
1053922973_1581_I,0.08061684097836742
1053922973_1582_I,0.08100085992689571
1053922973_1583_I,0.08138352165787054
1053922973_1584_I,0.08176473357612497
1053922973_1585_I,0.08214441243675344
1053922973_1586_I,0.08252248638093014
1053922973_1587_I,0.08289889700210443
1053922973_1588_I,0.0832736014469984
1053922973_1589_I,0.08364657456209369
1053922973_1590_I,0.0840178110991021
1053922973_1591_I,0.08438732799154426
1053922973_1592_I,0.08475516670916278
1053922973_1593_I,0.08512139568802077
1053922973_1594_I,0.08548611282241993
1053922973_1595_I,0.08584944799085256
1053922973_1596_I,0.0862115655727041
1053922973_1597_I,0.0865726668959408
1053922973_1598_I,0.08693299253910917
1053922973_1599_I,0.08729282439414719
1053922973_1600_I,0.08765248738020573
1053922973_1601_I,0.0880123506832726
1053922973_1602_I,0.08837282838215715
1053922973_1603_I,0.08873437930850203
1053922973_1604_I,0.08909750597698474
1053922973_1605_I,0.08946275241168149
1053922973_1606_I,0.08983070068564382
1053922973_1607_I,0.09020196598365905
1053922973_1608_I,0.09057718999506079
1053922973_1609_I,0.09095703244823847
1053922973_1610_I,0.09134216061549076
1053922973_1611_I,0.09173323664879578
1053922973_1612_I,0.09213090265431943
1053922973_1613_I,0.09253576347482309
1053922973_1614_I,0.09294836722263529
1053922973_1615_I,0.09336918368928766
1053922973_1616_I,0.09379858084881124
1053922973_1617_I,0.09423679976736117
1053922973_1618_I,0.09468392832939541
1053922973_1619_I,0.09513987428702159
1053922973_1620_I,0.09560433823115917
1053922973_1621_I,0.09607678716757256
1053922973_1622_I,0.09655642945432888
1053922973_1623_I,0.09704219191657468
1053922973_1624_I,0.09753269999659062
1053922973_1625_I,0.09802626181895989
1053922973_1626_I,0.09852085704974453
1053922973_1627_I,0.09901413140238727
1053922973_1628_I,0.09950339758913768
1053922973_1629_I,0.09998564343226715
1053922973_1630_I,0.10045754773132001
1053922973_1631_I,0.10091550432933469
1053922973_1632_I,0.10135565463247422
1053922973_1633_I,0.10177392861599042
1053922973_1634_I,0.10216609409877334
1053922973_1635_I,0.10252781379424308
1053922973_1636_I,0.10285470935381433
1053922973_1637_I,0.10314243131890444
1053922973_1638_I,0.10338673359834412
1053922973_1639_I,0.10358355080156847
1053922973_1640_I,0.10372907649722855
1053922973_1641_I,0.10381984024658934
1053922973_1642_I,0.10385278109756185
1053922973_1643_I,0.10382531513625169
1053922973_1644_I,0.10373539469769182
1053922973_1645_I,0.10358155695644615
1053922973_1646_I,0.10336295987249432
1053922973_1647_I,0.10307940387795947
1053922973_1648_I,0.102731338261441
1053922973_1649_I,0.10231985190667306
1053922973_1650_I,0.10184664878864225
1053922973_1651_I,0.10131400931867042
1053922973_1652_I,0.10072473918370504
1053922973_1653_I,0.10008210771833094
1053922973_1654_I,0.09938977808989478
1053922973_1655_I,0.09865173168809262
1053922973_1656_I,0.09787218911157396
1053922973_1657_I,0.09705553005552416
1053922973_1658_I,0.09620621424440429
1053922973_1659_I,0.0953287053401904
1053922973_1660_I,0.09442739950413892
1053922973_1661_I,0.09350656001326614
1053922973_1662_I,0.09257025904367226
1053922973_1663_I,0.09162232744220931
1053922973_1664_I,0.09066631302480581
1053922973_1665_I,0.08970544767144803
1053922973_1666_I,0.08874262324029653
1053922973_1667_I,0.0877803761011757
1053922973_1668_I,0.08682087989487501
1053922973_1669_I,0.08586594596129897
1053922973_1670_I,0.08491703074736728
1053922973_1671_I,0.08397524940461591
1053922973_1672_I,0.08304139471578308
1053922973_1673_I,0.08211596044769671
1053922973_1674_I,0.08119916821236883
1053922973_1675_I,0.08029099692678424
1053922973_1676_I,0.07939121399156623
1053922973_1677_I,0.07849940735644437
1053922973_1678_I,0.07761501770307286
1053922973_1679_I,0.07673737005008431
1053922973_1680_I,0.07586570416822028
1053922973_1681_I,0.07499920328200449
1053922973_1682_I,0.0741370206259678
1053922973_1683_I,0.07327830351538572
1053922973_1684_I,0.07242221468161926
1053922973_1685_I,0.07156795070852279
1053922973_1686_I,0.07071475748737141
1053922973_1687_I,0.06986194268205811
1053922973_1688_I,0.06900888526291085
1053922973_1689_I,0.06815504222568033
1053922973_1690_I,0.06729995266162433
1053922973_1691_I,0.06644323938499258
1053922973_1692_I,0.06558460835566096
1053922973_1693_I,0.06472384615743977
1053922973_1694_I,0.0638608158071252
1053922973_1695_I,0.06299545117626015
1053922973_1696_I,0.06212775030751013
1053922973_1697_I,0.06125776790131744
1053922973_1698_I,0.060385607236900236
1053922973_1699_I,0.05951141177556608
1053922973_1700_I,0.0586353566745721
1053922973_1701_I,0.05775764041722712
1053922973_1702_I,0.056878476740400946
1053922973_1703_I,0.055998087014837945
1053922973_1704_I,0.05511669320735775
1053922973_1705_I,0.05423451152778573
1053922973_1706_I,0.053351746837832226
1053922973_1707_I,0.05246858787459445
1053922973_1708_I,0.05158520331826867
1053922973_1709_I,0.050701738712333334
1053922973_1710_I,0.0498183142251222
1053922973_1711_I,0.04893502322450649
1053922973_1712_I,0.04805193162243943
1053922973_1713_I,0.04716907793342523
1053922973_1714_I,0.04628647398055103
1053922973_1715_I,0.04540410617452529
1053922973_1716_I,0.044521937285134296
1053922973_1717_I,0.04363990862058105
1053922973_1718_I,0.04275794252822405
1053922973_1719_I,0.04187594513020663
1053922973_1720_I,0.040993809209293075
1053922973_1721_I,0.040111417163841104
1053922973_1722_I,0.03922864395615352
1053922973_1723_I,0.03834535998529766
1053922973_1724_I,0.03746143382358541
1053922973_1725_I,0.03657673476491509
1053922973_1726_I,0.03569113514271249
1053922973_1727_I,0.03480451238492082
1053922973_1728_I,0.03391675078307003
1053922973_1729_I,0.03302774296164755
1053922973_1730_I,0.032137391042582064
1053922973_1731_I,0.031245607507475664
1053922973_1732_I,0.030352315767155105
1053922973_1733_I,0.029457450454076953
1053922973_1734_I,0.028560957458068744
1053922973_1735_I,0.027662793729804982
1053922973_1736_I,0.026762926879318288
1053922973_1737_I,0.025861334598772323
1053922973_1738_I,0.024958003939734758
1053922973_1739_I,0.024052930475362257
1053922973_1740_I,0.023146117377334754
1053922973_1741_I,0.0222375744361503
1053922973_1742_I,0.02132731705161799
1053922973_1743_I,0.020415365218169057
1053922973_1744_I,0.01950174252704959
1053922973_1745_I,0.018586475204663847
1053922973_1746_I,0.01766959120340088
1053922973_1747_I,0.01675111935828762
1053922973_1748_I,0.015831088619848565
1053922973_1749_I,0.014909527370686194
1053922973_1750_I,0.013986462830586377
1053922973_1751_I,0.013061920552449776
1053922973_1752_I,0.012135924009091041
1053922973_1753_I,0.011208494268961885
1053922973_1754_I,0.010279649757159967
1053922973_1755_I,0.009349406096692617
1053922973_1756_I,0.008417776023872248
1053922973_1757_I,0.007484769370921725
1053922973_1758_I,0.006550393108348015
1053922973_1759_I,0.005614651439380442
1053922973_1760_I,0.004677545938740686
1053922973_1761_I,0.003739075728185969
1053922973_1762_I,0.0027992376816136488
1053922973_1763_I,0.0018580266530013548
1053922973_1764_I,0.0009154357210480591
1053922973_1765_I,-2.8543554955782935e-05
1053922973_1766_I,-0.0009739208727995345
1053922973_1767_I,-0.0019207069226264708
1053922973_1768_I,-0.0028689131231830712
1053922973_1769_I,-0.003818551361771942
1053922973_1770_I,-0.004769633740059027
1053922973_1771_I,-0.005722172327391995
1053922973_1772_I,-0.006676178922890565
1053922973_1773_I,-0.007631664827280495
1053922973_1774_I,-0.008588640625265738
1053922973_1775_I,-0.009547115979167775
1053922973_1776_I,-0.010507099434602925
1053922973_1777_I,-0.011468598239108896
1053922973_1778_I,-0.01243161817485855
1053922973_1779_I,-0.013396163406895966
1053922973_1780_I,-0.014362236348678718
1053922973_1781_I,-0.015329837547088906
1053922973_1782_I,-0.01629896558946073
1053922973_1783_I,-0.01726961703553795
1053922973_1784_I,-0.018241786377594646
1053922973_1785_I,-0.019215466032200475
1053922973_1786_I,-0.02019064636726133
1053922973_1787_I,-0.0211673157679939
1053922973_1788_I,-0.0221454607453755
1053922973_1789_I,-0.02312506609032931
1053922973_1790_I,-0.02410611507644423
1053922973_1791_I,-0.025088589713375454
1053922973_1792_I,-0.026072471052220596
1053922973_1793_I,-0.027057739543115376
1053922973_1794_I,-0.02804437544404755
1053922973_1795_I,-0.029032359278460193
1053922973_1796_I,-0.0300216723376237
1053922973_1797_I,-0.031012297222026614
1053922973_1798_I,-0.032004218414201965
1053922973_1799_I,-0.032997422873508625
1053922973_1800_I,-0.03399190064147404
1053922973_1801_I,-0.03498764544442913
1053922973_1802_I,-0.03598465527838785
1053922973_1803_I,-0.03698293295950644
1053922973_1804_I,-0.03798248662206838
1053922973_1805_I,-0.038983330144849844
1053922973_1806_I,-0.03998548348599707
1053922973_1807_I,-0.04098897290626157
1053922973_1808_I,-0.04199383106065654
1053922973_1809_I,-0.04300009693937891
1053922973_1810_I,-0.04400781564023936
1053922973_1811_I,-0.04501703795689911
1053922973_1812_I,-0.046027819769959254
1053922973_1813_I,-0.047040221231400475
1053922973_1814_I,-0.048054305737028895
1053922973_1815_I,-0.04907013868642645
1053922973_1816_I,-0.05008778603539221
1053922973_1817_I,-0.051107312651930754
1053922973_1818_I,-0.05212878049341008
1053922973_1819_I,-0.053152246629463086
1053922973_1820_I,-0.05417776114240941
1053922973_1821_I,-0.05520536494427007
1053922973_1822_I,-0.056235087556654816
1053922973_1823_I,-0.05726694490671963
1053922973_1824_I,-0.0583009371988008
1053922973_1825_I,-0.05933704692699664
1053922973_1826_I,-0.060375237098645035
1053922973_1827_I,-0.061415449742084204
1053922973_1828_I,-0.0624576047740367
1053922973_1829_I,-0.06350159930218097
1053922973_1830_I,-0.06454730743674328
1053922973_1831_I,-0.0655945806810504
1053922973_1832_I,-0.06664324896475517
1053922973_1833_I,-0.06769312237474721
1053922973_1834_I,-0.06874399362750074
1053922973_1835_I,-0.06979564131275745
1053922973_1836_I,-0.07084783392202716
1053922973_1837_I,-0.0719003346565104
1053922973_1838_I,-0.07295290698788624
1053922973_1839_I,-0.07400532092222384
1053922973_1840_I,-0.07505735989241322
1053922973_1841_I,-0.07610882817840198
1053922973_1842_I,-0.07715955872768969
1053922973_1843_I,-0.07820942122157173
1053922973_1844_I,-0.07925833020622497
1053922973_1845_I,-0.08030625308263603
1053922973_1846_I,-0.08135321772640997
1053922973_1847_I,-0.08239931948851266
1053922973_1848_I,-0.08344472731189118
1053922973_1849_I,-0.08448968868757342
1053922973_1850_I,-0.08553453316816101
1053922973_1851_I,-0.08657967415744025
1053922973_1852_I,-0.08762560870292899
1053922973_1853_I,-0.08867291503423526
1053922973_1854_I,-0.08972224761469103
1053922973_1855_I,-0.09077432950724496
1053922973_1856_I,-0.09182994189827241
1053922973_1857_I,-0.09288991067479324
1053922973_1858_I,-0.09395509001133602
1053922973_1859_I,-0.09502634299184445
1053922973_1860_I,-0.09610451936878875
1053922973_1861_I,-0.09719043064491781
1053922973_1862_I,-0.0982848227514511
1053922973_1863_I,-0.09938834668822663
1053922973_1864_I,-0.10050152758434854
1053922973_1865_I,-0.10162473272987457
1053922973_1866_I,-0.10275813921743814
1053922973_1867_I,-0.10390170191456839
1053922973_1868_I,-0.1050551225598235
1053922973_1869_I,-0.10621782083552986
1053922973_1870_I,-0.10738890831371294
1053922973_1871_I,-0.1085671661965289
1053922973_1872_I,-0.10975102777510207
1053922973_1873_I,-0.11093856650830743
1053922973_1874_I,-0.11212749057322563
1053922973_1875_I,-0.11331514465971397
1053922973_1876_I,-0.1144985196713535
1053922973_1877_I,-0.11567427085325131
1053922973_1878_I,-0.11683874469395789
1053922973_1879_I,-0.11798801474526269
1053922973_1880_I,-0.11911792627214417
1053922973_1881_I,-0.12022414938920714
1053922973_1882_I,-0.12130224006444126
1053922973_1883_I,-0.12234770808244423
1053922973_1884_I,-0.12335609076527594
1053922973_1885_I,-0.12432303095936625
1053922973_1886_I,-0.12524435752255264
1053922973_1887_I,-0.12611616629920414
1053922973_1888_I,-0.12693489936798055
1053922973_1889_I,-0.1276974202021696
1053922973_1890_I,-0.12840108231438063
1053922973_1891_I,-0.1290437889847244
1053922973_1892_I,-0.12962404181486617
1053922973_1893_I,-0.1301409761307059
1053922973_1894_I,-0.13059438169214704
1053922973_1895_I,-0.13098470776091245
1053922973_1896_I,-0.13131305228855208
1053922973_1897_I,-0.13158113573145316
1053922973_1898_I,-0.1317912606762228
1053922973_1899_I,-0.1319462589964894
1053922973_1900_I,-0.13204942863928
1053922973_1901_I,-0.1321044623661998
1053922973_1902_I,-0.13211537087233877
1053922973_1903_I,-0.1320864026953008
1053922973_1904_I,-0.13202196322792642
1053922973_1905_I,-0.13192653497972628
1053922973_1906_I,-0.13180460101084374
1053922973_1907_I,-0.13166057320403732
1053922973_1908_I,-0.13149872675860355
1053922973_1909_I,-0.1313231419975689
1053922973_1910_I,-0.13113765428643254
1053922973_1911_I,-0.1309458125771619
1053922973_1912_I,-0.1307508468223634
1053922973_1913_I,-0.13055564425739213
1053922973_1914_I,-0.13036273432700837
1053922973_1915_I,-0.13017428184110091
1053922973_1916_I,-0.12999208778282917
1053922973_1917_I,-0.12981759706306142
1053922973_1918_I,-0.12965191241702517
1053922973_1919_I,-0.12949581357164375
1053922973_1920_I,-0.12934978077343406
1053922973_1921_I,-0.12921402175485822
1053922973_1922_I,-0.12908850122900828
1053922973_1923_I,-0.12897297203550848
1053922973_1924_I,-0.1288670071114003
1053922973_1925_I,-0.12877003152630315
1053922973_1926_I,-0.128681353898085
1053922973_1927_I,-0.12860019659048852
1053922973_1928_I,-0.12852572418463457
1053922973_1929_I,-0.12845706980927568
1053922973_1930_I,-0.12839335900755197
1053922973_1931_I,-0.1283337309085455
1053922973_1932_I,-0.12827735655818204
1053922973_1933_I,-0.1282234543443481
1053922973_1934_I,-0.12817130252416065
1053922973_1935_I,-0.1281202489261412
1053922973_1936_I,-0.12806971795591346
1053922973_1937_I,-0.12801921508055839
1053922973_1938_I,-0.1279683290037855
1053922973_1939_I,-0.12791673177172144
1053922973_1940_I,-0.1278641770676976
1053922973_1941_I,-0.1278104969644469
1053922973_1942_I,-0.1277555974042541
1053922973_1943_I,-0.12769945267263308
1053922973_1944_I,-0.12764209911990834
1053922973_1945_I,-0.1275836283685994
1053922973_1946_I,-0.1275241802237335
1053922973_1947_I,-0.12746393547913207
1053922973_1948_I,-0.12740310878631986
1053922973_1949_I,-0.12734194172493737
1053922973_1950_I,-0.12728069618530508
1053922973_1951_I,-0.1272196481459202
1053922973_1952_I,-0.12715908190193065
1053922973_1953_I,-0.12709928477568563
1053922973_1954_I,-0.1270405423178901
1053922973_1955_I,-0.12698313398815572
1053922973_1956_I,-0.1269273292872133
1053922973_1957_I,-0.12687338429999132
1053922973_1958_I,-0.12682153859932177
1053922973_1959_I,-0.1267720124542619
1053922973_1960_I,-0.12672500428486455
1053922973_1961_I,-0.1266806883065471
1053922973_1962_I,-0.12663921231176353
1053922973_1963_I,-0.12660069554415992
1053922973_1964_I,-0.12656522663039804
1053922973_1965_I,-0.12653286154691012
1053922973_1966_I,-0.12650362161248835
1053922973_1967_I,-0.12647749151226176
1053922973_1968_I,-0.12645441737368304
1053922973_1969_I,-0.12643430493003058
1053922973_1970_I,-0.1264170178210135
1053922973_1971_I,-0.1264023760927375
1053922973_1972_I,-0.12639015496996317
1053922973_1973_I,-0.1263800839817126
1053922973_1974_I,-0.1263718465263545
1053922973_1975_I,-0.12636507996389393
1053922973_1976_I,-0.12635937632096053
1053922973_1977_I,-0.1263542836876873
1053922973_1978_I,-0.12634930837517364
1053922973_1979_I,-0.12634391788754504
1053922973_1980_I,-0.12633754474392014
1053922973_1981_I,-0.1263295911632096
1053922973_1982_I,-0.12631943459911799
1053922973_1983_I,-0.12630643408472106
1053922973_1984_I,-0.126289937316473
1053922973_1985_I,-0.12626928837761625
1053922973_1986_I,-0.12624383597210784
1053922973_1987_I,-0.1262129420139546
1053922973_1988_I,-0.12617599039506025
1053922973_1989_I,-0.1261323957390816
1053922973_1990_I,-0.12608161194066528
1053922973_1991_I,-0.12602314028922226
1053922973_1992_I,-0.12595653698362147
1053922973_1993_I,-0.1258814198577792
1053922973_1994_I,-0.12579747415589213
1053922973_1995_I,-0.1257044572188829
1053922973_1996_I,-0.12560220196954625
1053922973_1997_I,-0.1254906191120769
1053922973_1998_I,-0.1253696979914293
1053922973_1999_I,-0.12523950608868872
1053922973_2000_I,-0.12510018715977622
1053922973_2001_I,-0.12495195805585048
1053922973_2002_I,-0.12479510429419101
1053922973_2003_I,-0.12462997447762104
1053922973_2004_I,-0.12445697368805714
1053922973_2005_I,-0.12427655600489262
1053922973_2006_I,-0.12408921632085518
1053922973_2007_I,-0.12389548164581983
1053922973_2008_I,-0.1236959021017676
1053922973_2009_I,-0.12349104181854759
1053922973_2010_I,-0.12328146993941519
1053922973_2011_I,-0.12306775193716726
1053922973_2012_I,-0.12285044142660627
1053922973_2013_I,-0.12263007263826921
1053922973_2014_I,-0.12240715369337836
1053922973_2015_I,-0.12218216079230139
1053922973_2016_I,-0.12195553339976743
1053922973_2017_I,-0.12172767048079942
1053922973_2018_I,-0.1214989278127236
1053922973_2019_I,-0.12126961637146244
1053922973_2020_I,-0.12104000176519956
1053922973_2021_I,-0.12081030466586849
1053922973_2022_I,-0.12058070216906991
1053922973_2023_I,-0.12035132999615931
1053922973_2024_I,-0.12012228543845888
1053922973_2025_I,-0.1198936309328447
1053922973_2026_I,-0.11966539815028453
1053922973_2027_I,-0.11943759247414083
1053922973_2028_I,-0.11921019774306026
1053922973_2029_I,-0.1189831811338696
1053922973_2030_I,-0.11875649806290112
1053922973_2031_I,-0.11853009698936574
1053922973_2032_I,-0.11830392401155754
1053922973_2033_I,-0.11807792715556079
1053922973_2034_I,-0.1178520602664934
1053922973_2035_I,-0.1176262864239098
1053922973_2036_I,-0.11740058081558255
1053922973_2037_I,-0.11717493301727
1053922973_2038_I,-0.11694934864006792
1053922973_2039_I,-0.11672385032135404
1053922973_2040_I,-0.11649847804999529
1053922973_2041_I,-0.11627328883122823
1053922973_2042_I,-0.11604835571127547
1053922973_2043_I,-0.11582376619614283
1053922973_2044_I,-0.11559962011296146
1053922973_2045_I,-0.11537602697547931
1053922973_2046_I,-0.11515310292762435
1053922973_2047_I,-0.11493096735018375
1053922973_2048_I,-0.11470973922526147
1053922973_2049_I,-0.11448953336096544
1053922973_2050_I,-0.11427045658444
1053922973_2051_I,-0.1140526040147023
1053922973_2052_I,-0.1138360555277079
1053922973_2053_I,-0.11362087252471299
1053922973_2054_I,-0.11340709511142849
1053922973_2055_I,-0.11319473978977651
1053922973_2056_I,-0.11298379775635019
1053922973_2057_I,-0.11277423389200554
1053922973_2058_I,-0.11256598651543057
1053922973_2059_I,-0.11235896796008603
1053922973_2060_I,-0.11215306601864307
1053922973_2061_I,-0.11194814628201614
1053922973_2062_I,-0.11174405538139127
1053922973_2063_I,-0.11154062512139519
1053922973_2064_I,-0.11133767747090002
1053922973_2065_I,-0.11113503035511828
1053922973_2066_I,-0.1109325041688784
1053922973_2067_I,-0.110729928906606
1053922973_2068_I,-0.1105271517799655
1053922973_2069_I,-0.1103240451697911
1053922973_2070_I,-0.11012051473538219
1053922973_2071_I,-0.10991650748203843
1053922973_2072_I,-0.10971201956750597
1053922973_2073_I,-0.10950710361049099
1053922973_2074_I,-0.10930187525030369
1053922973_2075_I,-0.10909651869677661
1053922973_2076_I,-0.10889129100461487
1053922973_2077_I,-0.10868652480701459
1053922973_2078_I,-0.10848262925041771
1053922973_2079_I,-0.10828008888627497
1053922973_2080_I,-0.10807946029718422
1053922973_2081_I,-0.10788136626415111
1053922973_2082_I,-0.10768648731922499
1053922973_2083_I,-0.10749555057345561
1053922973_2084_I,-0.1073093157638425
1053922973_2085_I,-0.10712855852433514
1053922973_2086_I,-0.1069540509543513
1053922973_2087_I,-0.10678653963281468
1053922973_2088_I,-0.1066267213051909
1053922973_2089_I,-0.10647521655395563
1053922973_2090_I,-0.10633254184761307
1053922973_2091_I,-0.10619908044777587
1053922973_2092_I,-0.10607505273564127
1053922973_2093_I,-0.10596048659594595
1053922973_2094_I,-0.10585518856545462
1053922973_2095_I,-0.105758716511392
1053922973_2096_I,-0.1056703546500435
1053922973_2097_I,-0.10558909174410348
1053922973_2098_I,-0.10551360332640232
1053922973_2099_I,-0.10544223878472728
1053922973_2100_I,-0.10537301410518306
1053922973_2101_I,-0.10530361100791572
1053922973_2102_I,-0.10523138311755141
1053922973_2103_I,-0.10515336969051077
1053922973_2104_I,-0.10506631727232595
1053922973_2105_I,-0.10496670948095792
1053922973_2106_I,-0.10485080490862779
1053922973_2107_I,-0.10471468290768439
1053922973_2108_I,-0.10455429677959262
1053922973_2109_I,-0.10436553362561855
1053922973_2110_I,-0.10414427984996985
1053922973_2111_I,-0.10388649103924971
1053922973_2112_I,-0.10358826468582115
1053922973_2113_I,-0.10324591398830626
1053922973_2114_I,-0.10285604076273157
1053922973_2115_I,-0.10241560534703802
1053922973_2116_I,-0.10192199129550691
1053922973_2117_I,-0.10137306265517412
1053922973_2118_I,-0.10076721171183137
1053922973_2119_I,-0.10010339530818545
1053922973_2120_I,-0.09938115819007322
1053922973_2121_I,-0.09860064233732418
1053922973_2122_I,-0.09776258186208626
1053922973_2123_I,-0.09686828374143508
1053922973_2124_I,-0.09591959529814166
1053922973_2125_I,-0.09491885987659747
1053922973_2126_I,-0.09386886254780016
1053922973_2127_I,-0.09277276792133546
1053922973_2128_I,-0.09163405226102937
1053922973_2129_I,-0.09045643211416039
1053922973_2130_I,-0.08924379159077785
1053922973_2131_I,-0.08800011028756861
1053922973_2132_I,-0.08672939365634863
1053922973_2133_I,-0.08543560738569914
1053922973_2134_I,-0.08412261710901654
1053922973_2135_I,-0.0827941344851055
1053922973_2136_I,-0.08145367042850644
1053922973_2137_I,-0.08010449600447309
1053922973_2138_I,-0.07874961125485473
1053922973_2139_I,-0.07739172199164253
1053922973_2140_I,-0.07603322438885271
1053922973_2141_I,-0.07467619702376069
1053922973_2142_I,-0.07332239986716979
1053922973_2143_I,-0.07197327960028134
1053922973_2144_I,-0.07062998054281355
1053922973_2145_I,-0.06929336041250066
1053922973_2146_I,-0.06796401009852553
1053922973_2147_I,-0.06664227661879116
1053922973_2148_I,-0.06532828844076768
1053922973_2149_I,-0.06402198237518601
1053922973_2150_I,-0.06272313129807425
1053922973_2151_I,-0.06143137201640156
1053922973_2152_I,-0.060146232662697856
1053922973_2153_I,-0.05886715908129184
1053922973_2154_I,-0.057593539750252776
1053922973_2155_I,-0.05632472886604852
1053922973_2156_I,-0.05506006730008069
1053922973_2157_I,-0.0537989012157827
1053922973_2158_I,-0.052540598210369105
1053922973_2159_I,-0.05128456091538647
1053922973_2160_I,-0.05003023805396823
1053922973_2161_I,-0.048777133009409036
1053922973_2162_I,-0.04752481000885371
1053922973_2163_I,-0.04627289806726782
1053922973_2164_I,-0.045021092870351546
1053922973_2165_I,-0.043769156800790694
1053922973_2166_I,-0.04251691733048658
1053922973_2167_I,-0.041264264012586434
1053922973_2168_I,-0.04001114431178
1053922973_2169_I,-0.03875755851005659
1053922973_2170_I,-0.037503553918618884
1053922973_2171_I,-0.03624921861565542
1053922973_2172_I,-0.034994674914935325
1053922973_2173_I,-0.03374007275246178
1053922973_2174_I,-0.032485583158443694
1053922973_2175_I,-0.031231391960325643
1053922973_2176_I,-0.029977693840220906
1053922973_2177_I,-0.02872468684742924
1053922973_2178_I,-0.02747256744434104
1053922973_2179_I,-0.026221526142411872
1053922973_2180_I,-0.024971743764446174
1053922973_2181_I,-0.02372338835049275
1053922973_2182_I,-0.0224766127074916
1053922973_2183_I,-0.021231552587615592
1053922973_2184_I,-0.019988325467148745
1053922973_2185_I,-0.018747029886799604
1053922973_2186_I,-0.017507745305571552
1053922973_2187_I,-0.016270532413657914
1053922973_2188_I,-0.015035433845212534
1053922973_2189_I,-0.013802475229140717
1053922973_2190_I,-0.012571666515108377
1053922973_2191_I,-0.011343003512600215
1053922973_2192_I,-0.010116469582878275
1053922973_2193_I,-0.008892037426895552
1053922973_2194_I,-0.007669670916397868
1053922973_2195_I,-0.006449326920393154
1053922973_2196_I,-0.005230957084679524
1053922973_2197_I,-0.004014509528009407
1053922973_2198_I,-0.0027999304245479623
1053922973_2199_I,-0.0015871654483961496
1053922973_2200_I,-0.00037616106194639833
1053922973_2201_I,0.0008331343644052213
1053922973_2202_I,0.0020407696082593266
1053922973_2203_I,0.0032467898290240876
1053922973_2204_I,0.004451235977167318
1053922973_2205_I,0.005654144372625159
1053922973_2206_I,0.006855546442749766
1053922973_2207_I,0.008055468607441371
1053922973_2208_I,0.00925393229696723
1053922973_2209_I,0.010450954086405931
1053922973_2210_I,0.011646545929643232
1053922973_2211_I,0.012840715475347727
1053922973_2212_I,0.014033466447326323
1053922973_2213_I,0.015224799072048942
1053922973_2214_I,0.016414710536883162
1053922973_2215_I,0.01760319546363379
1053922973_2216_I,0.018790246383281153
1053922973_2217_I,0.019975854199299013
1053922973_2218_I,0.021160008628556864
1053922973_2219_I,0.022342698610524958
1053922973_2220_I,0.02352391267726021
1053922973_2221_I,0.024703639278418243
1053922973_2222_I,0.025881867057274386
1053922973_2223_I,0.02705858507541367
1053922973_2224_I,0.028233782985337935
1053922973_2225_I,0.029407451151714517
1053922973_2226_I,0.03057958072333538
1053922973_2227_I,0.03175016365905393
1053922973_2228_I,0.03291919271200706
1053922973_2229_I,0.034086661377305656
1053922973_2230_I,0.03525256380908263
1053922973_2231_I,0.036416894713322906
1053922973_2232_I,0.037579649223265336
1053922973_2233_I,0.03874082276436647
1053922973_2234_I,0.039900410915856444
1053922973_2235_I,0.04105840927580656
1053922973_2236_I,0.042214813336374314
1053922973_2237_I,0.04336961837550505
1053922973_2238_I,0.0445228193708546
1053922973_2239_I,0.04567441094106209
1053922973_2240_I,0.04682438731875007
1053922973_2241_I,0.047972742358767764
1053922973_2242_I,0.04911946958422984
1053922973_2243_I,0.050264562271848036
1053922973_2244_I,0.051408013576918224
1053922973_2245_I,0.052549816697126175
1053922973_2246_I,0.05368996507308856
1053922973_2247_I,0.05482845262227066
1053922973_2248_I,0.05596527400164043
1053922973_2249_I,0.057100424893154415
1053922973_2250_I,0.05823390230495001
1053922973_2251_I,0.05936570487997096
1053922973_2252_I,0.06049583320270788
1053922973_2253_I,0.061624290093827194
1053922973_2254_I,0.06275108088172264
1053922973_2255_I,0.06387621363948827
1053922973_2256_I,0.06499969937551384
1053922973_2257_I,0.06612155216587604
1053922973_2258_I,0.06724178921697027
1053922973_2259_I,0.06836043084742599
1053922973_2260_I,0.06947750037929612
1053922973_2261_I,0.07059302392982425
1053922973_2262_I,0.07170703009678515
1053922973_2263_I,0.07281954953246644
1053922973_2264_I,0.07393061440380924
1053922973_2265_I,0.0750402577390361
1053922973_2266_I,0.07614851266424168
1053922973_2267_I,0.0772554115368676
1053922973_2268_I,0.0783609849866783
1053922973_2269_I,0.0794652608787388
1053922973_2270_I,0.08056826321689438
1053922973_2271_I,0.08167001101028196
1053922973_2272_I,0.08277051712936655
1053922973_2273_I,0.0838697871817898
1053922973_2274_I,0.08496781844182441
1053922973_2275_I,0.08606459887032833
1053922973_2276_I,0.08716010626465863
1053922973_2277_I,0.08825430757990756
1053922973_2278_I,0.08934715846392917
1053922973_2279_I,0.09043860304880208
1053922973_2280_I,0.09152857404049008
1053922973_2281_I,0.09261699314639338
1053922973_2282_I,0.09370377187712334
1053922973_2283_I,0.09478881275409276
1053922973_2284_I,0.09587201094833094
1053922973_2285_I,0.0969532563682733
1053922973_2286_I,0.09803243620514028
1053922973_2287_I,0.09910943793394127
1053922973_2288_I,0.10018415275619473
1053922973_2289_I,0.1012564794572582
1053922973_2290_I,0.10232632863686773
1053922973_2291_I,0.10339362725629268
1053922973_2292_I,0.10445832342965586
1053922973_2293_I,0.10552039137072124
1053922973_2294_I,0.10657983639011855
1053922973_2295_I,0.10763669982189221
1053922973_2296_I,0.10869106374281423
1053922973_2297_I,0.10974305533355275
1053922973_2298_I,0.1107928507181396
1053922973_2299_I,0.11184067810796573
1053922973_2300_I,0.1128868200695695
1053922973_2301_I,0.11393161473259367
1053922973_2302_I,0.11497545575623982
1053922973_2303_I,0.1160187908800265
1053922973_2304_I,0.11706211889823741
1053922973_2305_I,0.11810598491757428
1053922973_2306_I,0.11915097378450834
1053922973_2307_I,0.12019770160278574
1053922973_2308_I,0.12124680530243752
1053922973_2309_I,0.12229893026921322
1053922973_2310_I,0.12335471609712989
1053922973_2311_I,0.12441478058610005
1053922973_2312_I,0.12547970217043733
1053922973_2313_I,0.12655000103126357
1053922973_2314_I,0.12762611921504424
1053922973_2315_I,0.12870840015002985
1053922973_2316_I,0.12979706802042748
1053922973_2317_I,0.13089220752264166
1053922973_2318_I,0.1319937445867085
1053922973_2319_I,0.13310142869679928
1053922973_2320_I,0.13421481748500874
1053922973_2321_I,0.13533326430018022
1053922973_2322_I,0.13645590946590486
1053922973_2323_I,0.13758167593681875
1053922973_2324_I,0.13870927003784048
1053922973_2325_I,0.13983718792521185
1053922973_2326_I,0.1409637283396299
1053922973_2327_I,0.14208701212928881
1053922973_2328_I,0.14320500890367927
1053922973_2329_I,0.14431557103746717
1053922973_2330_I,0.14541647507828195
1053922973_2331_I,0.1465054704240677
1053922973_2332_I,0.14758033492682338
1053922973_2333_I,0.14863893685291368
1053922973_2334_I,0.14967930238931368
1053922973_2335_I,0.15069968763463915
1053922973_2336_I,0.15169865375889607
1053922973_2337_I,0.15267514376263003
1053922973_2338_I,0.1536285590213468
1053922973_2339_I,0.1545588335721339
1053922973_2340_I,0.15546650389426395
1053922973_2341_I,0.1563527717625226
1053922973_2342_I,0.15721955761958714
1053922973_2343_I,0.15806954183050512
1053922973_2344_I,0.15890619115647978
1053922973_2345_I,0.15973376782457935
1053922973_2346_I,0.16055731868173526
1053922973_2347_I,0.1613826421115396
1053922973_2348_I,0.1622162306656479
1053922973_2349_I,0.1630651877211925
1053922973_2350_I,0.16393711692277477
1053922973_2351_I,0.16483998370143246
1053922973_2352_I,0.165781948780159
1053922973_2353_I,0.16677117427013086
1053922973_2354_I,0.16781560372501747
1053922973_2355_I,0.16892271834090544
1053922973_2356_I,0.17009927235175565
1053922973_2357_I,0.17135101155724083
1053922973_2358_I,0.17268237981067505
1053922973_2359_I,0.17409621916623286
1053922973_2360_I,0.1755934702110075
1053922973_2361_I,0.17717287986086366
1053922973_2362_I,0.17883072455014018
1053922973_2363_I,0.18056055726372242
1053922973_2364_I,0.1823529872152704
1053922973_2365_I,0.18419550113745936
1053922973_2366_I,0.18607233509047658
1053922973_2367_I,0.1879644053877315
1053922973_2368_I,0.18984930666040148
1053922973_2369_I,0.19170138421743388
1053922973_2370_I,0.1934918866933039
1053922973_2371_I,0.1951892035077277
1053922973_2372_I,0.19675918989360114
1053922973_2373_I,0.19816558019524264
1053922973_2374_I,0.1993704878228656
1053922973_2375_I,0.2003349877071839
1053922973_2376_I,0.20101977437897453
1053922973_2377_I,0.20138588596455326
1053922973_2378_I,0.20139548151581138
1053922973_2379_I,0.20101265627346435
1053922973_2380_I,0.20020427679977448
1053922973_2381_I,0.19894081553190712
1053922973_2382_I,0.19719716233288062
1053922973_2383_I,0.19495338920061464
1053922973_2384_I,0.19219544359585497
1053922973_2385_I,0.18891574603658792
1053922973_2386_I,0.18511366885894107
1053922973_2387_I,0.18079587554292983
1053922973_2388_I,0.17597650388208202
1053922973_2389_I,0.17067718150240416
1053922973_2390_I,0.16492686843984283
1053922973_2391_I,0.15876152797694648
1053922973_2392_I,0.15222363298709973
1053922973_2393_I,0.14536152017995638
1053922973_2394_I,0.13822860876843834
1053922973_2395_I,0.13088250326634035
1053922973_2396_I,0.1233840025059226
1053922973_2397_I,0.11579603865714479
1053922973_2398_I,0.10818257113487441
1053922973_2399_I,0.10060746087662645
1053922973_2400_I,0.09313335061778759
1053922973_2401_I,0.08582057651717066
1053922973_2402_I,0.07872613580277932
1053922973_2403_I,0.0719027340018425
1053922973_2404_I,0.06539793375330485
1053922973_2405_I,0.05925342511548815
1053922973_2406_I,0.05350443459590398
1053922973_2407_I,0.048179286743993056
1053922973_2408_I,0.04329912795343496
1053922973_2409_I,0.03887781707054942
1053922973_2410_I,0.034921981660577445
1053922973_2411_I,0.03143123282789726
1053922973_2412_I,0.028398525999014948
1053922973_2413_I,0.025810650616272322
1053922973_2414_I,0.02364882849054161
1053922973_2415_I,0.021889398591411115
1053922973_2416_I,0.020504565170263677
1053922973_2417_I,0.019463186151763928
1053922973_2418_I,0.018731579533893324
1053922973_2419_I,0.018274326955734235
1053922973_2420_I,0.018055055485815378
1053922973_2421_I,0.018037180923532625
1053922973_2422_I,0.018184598375883352
1053922973_2423_I,0.01846230846848107
1053922973_2424_I,0.018836970183956425
1053922973_2425_I,0.01927737391633118
1053922973_2426_I,0.019754830824071794
1053922973_2427_I,0.020243476907568128
1053922973_2428_I,0.020720492391311497
1053922973_2429_I,0.021166238930328846
1053922973_2430_I,0.02156431886469317
1053922973_2431_I,0.02190156219711682
1053922973_2432_I,0.022167948148458863
1053922973_2433_I,0.022356469041106216
1053922973_2434_I,0.022462944869815194
1053922973_2435_I,0.022485797257244214
1053922973_2436_I,0.022425791580401144
1053922973_2437_I,0.02228575592257095
1053922973_2438_I,0.022070285182906442
1053922973_2439_I,0.021785438193374747
1053922973_2440_I,0.021438435080586987
1053922973_2441_I,0.021037361397676823
1053922973_2442_I,0.020590884766694777
1053922973_2443_I,0.020107988940639095
1053922973_2444_I,0.019597729339330596
1053922973_2445_I,0.019069013254997515
1053922973_2446_I,0.01853040707863987
1053922973_2447_I,0.01798997208067107
1053922973_2448_I,0.01745512949933722
1053922973_2449_I,0.01693255495530461
1053922973_2450_I,0.01642810152657014
1053922973_2451_I,0.015946750193214197
1053922973_2452_I,0.015492585811624306
1053922973_2453_I,0.01506879632195442
1053922973_2454_I,0.01467769254597958
1053922973_2455_I,0.014320745700028666
1053922973_2456_I,0.013998639624553983
1053922973_2457_I,0.013711334708148375
1053922973_2458_I,0.013458140547547823
1053922973_2459_I,0.01323779452377146
1053922973_2460_I,0.013048543675182931
1053922973_2461_I,0.012888227498024924
1053922973_2462_I,0.012754359591233621
1053922973_2463_I,0.012644206372881028
1053922973_2464_I,0.012554861418855342
1053922973_2465_I,0.012483314299598262
1053922973_2466_I,0.012426513108010719
1053922973_2467_I,0.012381420172157086
1053922973_2468_I,0.012345060722354733
1053922973_2469_I,0.012314564526962921
1053922973_2470_I,0.012287200719277165
1053922973_2471_I,0.012260406205788558
1053922973_2472_I,0.012231808172854552
1053922973_2473_I,0.012199241296904435
1053922973_2474_I,0.012160760316914708
1053922973_2475_I,0.01211464865099524
1053922973_2476_I,0.012059423734203144
1053922973_2477_I,0.011993839724151946
1053922973_2478_I,0.01191688816683511
1053922973_2479_I,0.011827797140135505
1053922973_2480_I,0.011726029300104116
1053922973_2481_I,0.011611279149088658
1053922973_2482_I,0.011483469729382943
1053922973_2483_I,0.011342748825747867
1053922973_2484_I,0.01118948463962363
1053922973_2485_I,0.011024260781921364
1053922973_2486_I,0.010847870324790348
1053922973_2487_I,0.010661308560486929
1053922973_2488_I,0.010465764042069309
1053922973_2489_I,0.010262607430535562
1053922973_2490_I,0.010053377650278517
1053922973_2491_I,0.00983976486253864
1053922973_2492_I,0.009623589805962993
1053922973_2493_I,0.009406779122065365
1053922973_2494_I,0.009191336375939285
1053922973_2495_I,0.008979308593107586
1053922973_2496_I,0.008772748257910076
1053922973_2497_I,0.008573670855474615
1053922973_2498_I,0.008384008187046215
1053922973_2499_I,0.008205557845919979
1053922973_0_II,0.010418540951907149
1053922973_1_II,0.01039117631598307
1053922973_2_II,0.010363563797950111
1053922973_3_II,0.010335777678236057
1053922973_4_II,0.010307885740748656
1053922973_5_II,0.01027994875179287
1053922973_6_II,0.010252020119246419
1053922973_7_II,0.010224145724081207
1053922973_8_II,0.010196363912861665
1053922973_9_II,0.010168705637046587
1053922973_10_II,0.010141194722768159
1053922973_11_II,0.010113848253243076
1053922973_12_II,0.010086677045053812
1053922973_13_II,0.010059686199179263
1053922973_14_II,0.010032875707800249
1053922973_15_II,0.010006241098497024
1053922973_16_II,0.009979774098429128
1053922973_17_II,0.009953463302376661
1053922973_18_II,0.009927294830060015
1053922973_19_II,0.009901252959877425
1053922973_20_II,0.009875320728044423
1053922973_21_II,0.009849480484028478
1053922973_22_II,0.009823714395092812
1053922973_23_II,0.009798004894648524
1053922973_24_II,0.009772335070922403
1053922973_25_II,0.00974668899414492
1053922973_26_II,0.00972105198202062
1053922973_27_II,0.009695410804639898
1053922973_28_II,0.009669753831211785
1053922973_29_II,0.009644071122032383
1053922973_30_II,0.009618354469948938
1053922973_31_II,0.009592597396236472
1053922973_32_II,0.00956679510627734
1053922973_33_II,0.009540944410733493
1053922973_34_II,0.009515043618038354
1053922973_35_II,0.009489092404024999
1053922973_36_II,0.009463091664365932
1053922973_37_II,0.009437043355245126
1053922973_38_II,0.009410950327333256
1053922973_39_II,0.009384816157710953
1053922973_40_II,0.00935864498390056
1053922973_41_II,0.00933244134364187
1053922973_42_II,0.009306210023498419
1053922973_43_II,0.00927995591882306
1053922973_44_II,0.009253683907059046
1053922973_45_II,0.009227398735817193
1053922973_46_II,0.009201104926661825
1053922973_47_II,0.009174806695066477
1053922973_48_II,0.0091485078865714
1053922973_49_II,0.009122211928794085
1053922973_50_II,0.009095921798614584
1053922973_51_II,0.009069640003581026
1053922973_52_II,0.00904336857635805
1053922973_53_II,0.009017109080870672
1053922973_54_II,0.00899086262867668
1053922973_55_II,0.008964629904028694
1053922973_56_II,0.008938411196059157
1053922973_57_II,0.008912206436533163
1053922973_58_II,0.008886015241660576
1053922973_59_II,0.008859836956535099
1053922973_60_II,0.008833670700869007
1053922973_61_II,0.008807515414812625
1053922973_62_II,0.008781369903782737
1053922973_63_II,0.00875523288136867
1053922973_64_II,0.008729103009534982
1053922973_65_II,0.008702978935490727
1053922973_66_II,0.008676859324744168
1053922973_67_II,0.008650742890004821
1053922973_68_II,0.008624628415729517
1053922973_69_II,0.008598514778233476
1053922973_70_II,0.008572400961399487
1053922973_71_II,0.00854628606811688
1053922973_72_II,0.008520169327666445
1053922973_73_II,0.008494050099337253
1053922973_74_II,0.008467927872616653
1053922973_75_II,0.008441802264335793
1053922973_76_II,0.008415673013180618
1053922973_77_II,0.00838953997199318
1053922973_78_II,0.008363403098291526
1053922973_79_II,0.008337262443429465
1053922973_80_II,0.008311118140801486
1053922973_81_II,0.008284970393474632
1053922973_82_II,0.008258819461599221
1053922973_83_II,0.008232665649915837
1053922973_84_II,0.00820650929563789
1053922973_85_II,0.008180350756948807
1053922973_86_II,0.008154190402311669
1053922973_87_II,0.00812802860074783
1053922973_88_II,0.008101865713200901
1053922973_89_II,0.008075702085064076
1053922973_90_II,0.008049538039912948
1053922973_91_II,0.008023373874453213
1053922973_92_II,0.007997209854663359
1053922973_93_II,0.00797104621308693
1053922973_94_II,0.00794488314720738
1053922973_95_II,0.007918720818820942
1053922973_96_II,0.007892559354309376
1053922973_97_II,0.007866398845704607
1053922973_98_II,0.007840239352431085
1053922973_99_II,0.007814080903608892
1053922973_100_II,0.007787923500800759
1053922973_101_II,0.007761767121089015
1053922973_102_II,0.007735611720373725
1053922973_103_II,0.0077094572367903715
1053922973_104_II,0.007683303594154179
1053922973_105_II,0.007657150705348017
1053922973_106_II,0.007630998475581548
1053922973_107_II,0.007604846805460409
1053922973_108_II,0.007578695593815583
1053922973_109_II,0.007552544740254306
1053922973_110_II,0.007526394147404751
1053922973_111_II,0.007500243722836967
1053922973_112_II,0.007474093380652057
1053922973_113_II,0.0074479430427401745
1053922973_114_II,0.007421792639715522
1053922973_115_II,0.007395642111543109
1053922973_116_II,0.007369491407877503
1053922973_117_II,0.007343340488138231
1053922973_118_II,0.007317189321349807
1053922973_119_II,0.0072910378857766606
1053922973_120_II,0.007264886168384589
1053922973_121_II,0.007238734164160811
1053922973_122_II,0.007212581875324405
1053922973_123_II,0.007186429310457885
1053922973_124_II,0.007160276483589011
1053922973_125_II,0.007134123413249827
1053922973_126_II,0.007107970121537365
1053922973_127_II,0.007081816633197671
1053922973_128_II,0.007055662974751721
1053922973_129_II,0.00702950917367884
1053922973_130_II,0.007003355257670044
1053922973_131_II,0.006977201253960726
1053922973_132_II,0.006951047188749206
1053922973_133_II,0.00692489308670493
1053922973_134_II,0.006898738970567588
1053922973_135_II,0.0068725848608362
1053922973_136_II,0.006846430775545278
1053922973_137_II,0.006820276730123446
1053922973_138_II,0.006794122737328558
1053922973_139_II,0.006767968807252174
1053922973_140_II,0.006741814947385516
1053922973_141_II,0.0067156611627383995
1053922973_142_II,0.006689507456002383
1053922973_143_II,0.006663353827749394
1053922973_144_II,0.006637200276657182
1053922973_145_II,0.0066110467997533675
1053922973_146_II,0.0065848933926702675
1053922973_147_II,0.00655874004990342
1053922973_148_II,0.006532586765067399
1053922973_149_II,0.006506433531143337
1053922973_150_II,0.0064802803407134155
1053922973_151_II,0.006454127186178413
1053922973_152_II,0.0064279740599552
1053922973_153_II,0.006401820954651899
1053922973_154_II,0.006375667863219156
1053922973_155_II,0.0063495147790766935
1053922973_156_II,0.006323361696215011
1053922973_157_II,0.006297208609272639
1053922973_158_II,0.006271055513589852
1053922973_159_II,0.006244902405240259
1053922973_160_II,0.006218749281041925
1053922973_161_II,0.006192596138550113
1053922973_162_II,0.0061664429760338105
1053922973_163_II,0.006140289792438422
1053922973_164_II,0.00611413658733701
1053922973_165_II,0.006087983360872439
1053922973_166_II,0.006061830113692742
1053922973_167_II,0.006035676846881836
1053922973_168_II,0.006009523561887606
1053922973_169_II,0.005983370260449217
1053922973_170_II,0.0059572169445252935
1053922973_171_II,0.005931063616224405
1053922973_172_II,0.005904910277739099
1053922973_173_II,0.005878756931284482
1053922973_174_II,0.005852603579042201
1053922973_175_II,0.0058264502231104775
1053922973_176_II,0.005800296865460644
1053922973_177_II,0.005774143507900475
1053922973_178_II,0.005747990152044395
1053922973_179_II,0.0057218367992905245
1053922973_180_II,0.005695683450804346
1053922973_181_II,0.005669530107508686
1053922973_182_II,0.005643376770079648
1053922973_183_II,0.005617223438948037
1053922973_184_II,0.005591070114305784
1053922973_185_II,0.005564916796116841
1053922973_186_II,0.005538763484132028
1053922973_187_II,0.005512610177907301
1053922973_188_II,0.005486456876824955
1053922973_189_II,0.005460303580117293
1053922973_190_II,0.005434150286892276
1053922973_191_II,0.005407996996160706
1053922973_192_II,0.005381843706864547
1053922973_193_II,0.005355690417905985
1053922973_194_II,0.0053295371281768655
1053922973_195_II,0.005303383836588163
1053922973_196_II,0.005277230542099156
1053922973_197_II,0.0052510772437459495
1053922973_198_II,0.00522492394066903
1053922973_199_II,0.005198770632139479
1053922973_200_II,0.0051726173175834925
1053922973_201_II,0.0051464639966048
1053922973_202_II,0.005120310669004571
1053922973_203_II,0.005094157334798383
1053922973_204_II,0.005068003994229778
1053922973_205_II,0.00504185064777993
1053922973_206_II,0.005015697296172942
1053922973_207_II,0.004989543940376278
1053922973_208_II,0.004963390581595838
1053922973_209_II,0.004937237221265263
1053922973_210_II,0.004911083861029066
1053922973_211_II,0.004884930502719342
1053922973_212_II,0.004858777148325837
1053922973_213_II,0.004832623799959335
1053922973_214_II,0.004806470459808447
1053922973_215_II,0.004780317130090028
1053922973_216_II,0.004754163812993655
1053922973_217_II,0.0047280105106207535
1053922973_218_II,0.004701857224919198
1053922973_219_II,0.004675703957614368
1053922973_220_II,0.004649550710137897
1053922973_221_II,0.004623397483555531
1053922973_222_II,0.004597244278495724
1053922973_223_II,0.0045710910950808314
1053922973_224_II,0.004544937932862894
1053922973_225_II,0.004518784790766238
1053922973_226_II,0.004492631667039129
1053922973_227_II,0.004466478559216891
1053922973_228_II,0.004440325464098821
1053922973_229_II,0.004414172377741251
1053922973_230_II,0.004388019295468929
1053922973_231_II,0.0043618662119067455
1053922973_232_II,0.004335713121033529
1053922973_233_II,0.0043095600162592895
1053922973_234_II,0.0042834068905268355
1053922973_235_II,0.004257253736438206
1053922973_236_II,0.004231100546405761
1053922973_237_II,0.004204947312827136
1053922973_238_II,0.004178794028282554
1053922973_239_II,0.0041526406857522215
1053922973_240_II,0.004126487278850719
1053922973_241_II,0.004100333802074456
1053922973_242_II,0.004074180251057413
1053922973_243_II,0.004048026622829576
1053922973_244_II,0.004021872916071669
1053922973_245_II,0.003995719131359066
1053922973_246_II,0.0039695652713871155
1053922973_247_II,0.0039434113411696385
1053922973_248_II,0.00391725734820195
1053922973_249_II,0.0038911033025796596
1053922973_250_II,0.0038649492170645112
1053922973_251_II,0.003838795107088826
1053922973_252_II,0.003812640990690622
1053922973_253_II,0.0037864868883723236
1053922973_254_II,0.003760332822877035
1053922973_255_II,0.003734178818877765
1053922973_256_II,0.0037080249025766543
1053922973_257_II,0.0036818711012132467
1053922973_258_II,0.0036557174424830747
1053922973_259_II,0.003629563953870365
1053922973_260_II,0.0036034106619013536
1053922973_261_II,0.003577257591327637
1053922973_262_II,0.0035511047642520117
1053922973_263_II,0.003524952199212376
1053922973_264_II,0.0034987999102423454
1053922973_265_II,0.003472647905930232
1053922973_266_II,0.00344649618850082
1053922973_267_II,0.0034203447529469067
1053922973_268_II,0.003394193586239699
1053922973_269_II,0.003368042666648783
1053922973_270_II,0.003341891963203433
1053922973_271_II,0.0033157414353273515
1053922973_272_II,0.0032895910326784824
1053922973_273_II,0.003263440695224175
1053922973_274_II,0.003237290353579684
1053922973_275_II,0.0032111399296346653
1053922973_276_II,0.0031849893374879404
1053922973_277_II,0.0031588384847053186
1053922973_278_II,0.003132687273908687
1053922973_279_II,0.003106535604696954
1053922973_280_II,0.0030803833758908223
1053922973_281_II,0.003054230488083841
1053922973_282_II,0.0030280768464719496
1053922973_283_II,0.0030019223639228677
1053922973_284_II,0.0029757669642354835
1053922973_285_II,0.002949610585528054
1053922973_286_II,0.002923453183682861
1053922973_287_II,0.0028972947357642645
1053922973_288_II,0.0028711352433172434
1053922973_289_II,0.002844974735444802
1053922973_290_II,0.002818813271555497
1053922973_291_II,0.0027926509436671043
1053922973_292_II,0.002766487878149581
1053922973_293_II,0.002740324236790272
1053922973_294_II,0.0027141602170671414
1053922973_295_II,0.002687996051521992
1053922973_296_II,0.0026618320061354683
1053922973_297_II,0.0026356683776192573
1053922973_298_II,0.002609505489558533
1053922973_299_II,0.0025833436873592386
1053922973_300_II,0.002557183331980363
1053922973_301_II,0.0025310247924606403
1053922973_302_II,0.002504868437281869
1053922973_303_II,0.0024787146246469105
1053922973_304_II,0.002452563691788745
1053922973_305_II,0.002426415943467183
1053922973_306_II,0.002400271639851009
1053922973_307_II,0.002374130984024594
1053922973_308_II,0.002347994109398303
1053922973_309_II,0.002321861067340043
1053922973_310_II,0.002295731815379937
1053922973_311_II,0.0022696062063698548
1053922973_312_II,0.002243483979003136
1053922973_313_II,0.002217364750115779
1053922973_314_II,0.0021912480091973528
1053922973_315_II,0.0021651331155365223
1053922973_316_II,0.00213901929841113
1053922973_317_II,0.002112905660705208
1053922973_318_II,0.002086791186294174
1053922973_319_II,0.0020606747514841524
1053922973_320_II,0.0020345551407215234
1053922973_321_II,0.002008431066704377
1053922973_322_II,0.001982301194928925
1053922973_323_II,0.0019561641725918595
1053922973_324_II,0.0019300186616453608
1053922973_325_II,0.0019038633756666655
1053922973_326_II,0.001877697120060992
1053922973_327_II,0.0018515188349678814
1053922973_328_II,0.0018253276400898163
1053922973_329_II,0.0017991228805119676
1053922973_330_II,0.0017729041724371967
1053922973_331_II,0.0017466714476254302
1053922973_332_II,0.0017204249952060505
1053922973_333_II,0.001694165499430986
1053922973_334_II,0.0016678940718598803
1053922973_335_II,0.0016416122764222496
1053922973_336_II,0.0016153221457898656
1053922973_337_II,0.001589026187520556
1053922973_338_II,0.0015627273785064637
1053922973_339_II,0.001536429146379325
1053922973_340_II,0.001510135336695454
1053922973_341_II,0.0014838501649459004
1053922973_342_II,0.001457578152713545
1053922973_343_II,0.001431324047628376
1053922973_344_II,0.0014050927271530244
1053922973_345_II,0.001378889086659467
1053922973_346_II,0.00135271791272958
1053922973_347_II,0.001326583743120168
1053922973_348_II,0.0013004907153685967
1053922973_349_II,0.001274442406567858
1053922973_350_II,0.001248441667397614
1053922973_351_II,0.0012224904540467877
1053922973_352_II,0.001196589662188195
1053922973_353_II,0.0011707389676500722
1053922973_354_II,0.001144936678855495
1053922973_355_II,0.0011191796064503492
1053922973_356_II,0.0010934629557951862
1053922973_357_II,0.0010677802481376065
1053922973_358_II,0.0010421232762920637
1053922973_359_II,0.0010164821005167694
1053922973_360_II,0.0009908450899780872
1053922973_361_II,0.0009651990147192718
1053922973_362_II,0.0009395291923936134
1053922973_363_II,0.0009138196931766351
1053922973_364_II,0.000888053605237002
1053922973_365_II,0.0008622133619251971
1053922973_366_II,0.000836281130442189
1053922973_367_II,0.0008102392601925928
1053922973_368_II,0.0007840707873297577
1053922973_369_II,0.0007577599901918341
1053922973_370_II,0.0007312929884427862
1053922973_371_II,0.0007046583768115437
1053922973_372_II,0.0006778478824132882
1053922973_373_II,0.0006508570327921517
1053922973_374_II,0.000623685820102298
1053922973_375_II,0.0005963393453064357
1053922973_376_II,0.0005688284249820983
1053922973_377_II,0.0005411701423528258
1053922973_378_II,0.0005133883235697121
1053922973_379_II,0.00048551392012255017
1053922973_380_II,0.000457585278618625
1053922973_381_II,0.0004296482800840631
1053922973_382_II,0.000401756332461449
1053922973_383_II,0.0003739702021302532
1053922973_384_II,0.0003463576730811226
1053922973_385_II,0.0003189930258315884
1053922973_386_II,0.00029195633225951955
1053922973_387_II,0.00026533256720921857
1053922973_388_II,0.0002392105429255667
1053922973_389_II,0.0002136816779985378
1053922973_390_II,0.00018883861842829768
1053922973_391_II,0.00016477373449298605
1053922973_392_II,0.00014157752312712212
1053922973_393_II,0.00011933695127442608
1053922973_394_II,9.813378090642045e-05
1053922973_395_II,7.804292080496117e-05
1053922973_396_II,5.9130853466858165e-05
1053922973_397_II,4.145418724385948e-05
1053922973_398_II,2.505838369315722e-05
1053922973_399_II,9.976707666273351e-06
1053922973_400_II,-3.770557532782885e-06
1053922973_401_II,-1.617659595866031e-05
1053922973_402_II,-2.724822355577337e-05
1053922973_403_II,-3.700572362720221e-05
1053922973_404_II,-4.548236102355388e-05
1053922973_405_II,-5.2723597301124695e-05
1053922973_406_II,-5.8786040810788304e-05
1053922973_407_II,-6.373617404850189e-05
1053922973_408_II,-6.764890579528731e-05
1053922973_409_II,-7.060599802184687e-05
1053922973_410_II,-7.269441767108566e-05
1053922973_411_II,-7.400466167670304e-05
1053922973_412_II,-7.462910031600213e-05
1053922973_413_II,-7.466037958828255e-05
1053922973_414_II,-7.418991808261055e-05
1053922973_415_II,-7.3306528042906e-05
1053922973_416_II,-7.209518431244505e-05
1053922973_417_II,-7.063595876799679e-05
1053922973_418_II,-6.900313192591232e-05
1053922973_419_II,-6.726448777557965e-05
1053922973_420_II,-6.548079269514247e-05
1053922973_421_II,-6.370545462581662e-05
1053922973_422_II,-6.198435459235795e-05
1053922973_423_II,-6.0355839200730975e-05
1053922973_424_II,-5.8850859939524145e-05
1053922973_425_II,-5.749324295881681e-05
1053922973_426_II,-5.630007148140912e-05
1053922973_427_II,-5.528216208445854e-05
1053922973_428_II,-5.4444615730748095e-05
1053922973_429_II,-5.378742457504065e-05
1053922973_430_II,-5.3306116162640326e-05
1053922973_431_II,-5.299241761049017e-05
1053922973_432_II,-5.283492364984655e-05
1053922973_433_II,-5.281975394750316e-05
1053922973_434_II,-5.293118684485209e-05
1053922973_435_II,-5.315225849879084e-05
1053922973_436_II,-5.346531831769044e-05
1053922973_437_II,-5.3852533506401395e-05
1053922973_438_II,-5.429633741936221e-05
1053922973_439_II,-5.477981822924115e-05
1053922973_440_II,-5.5287046115603775e-05
1053922973_441_II,-5.580333873582093e-05
1053922973_442_II,-5.631546613725361e-05
1053922973_443_II,-5.6811797490362195e-05
1053922973_444_II,-5.728239305737633e-05
1053922973_445_II,-5.771904565657566e-05
1053922973_446_II,-5.811527653904351e-05
1053922973_447_II,-5.846629106828918e-05
1053922973_448_II,-5.8768899892438524e-05
1053922973_449_II,-5.902141143591341e-05
1053922973_450_II,-5.922350152725766e-05
1053922973_451_II,-5.9376065838458677e-05
1053922973_452_II,-5.948106055643712e-05
1053922973_453_II,-5.9541336357696305e-05
1053922973_454_II,-5.95604703309798e-05
1053922973_455_II,-5.95426000084408e-05
1053922973_456_II,-5.9492263140871396e-05
1053922973_457_II,-5.94142463035456e-05
1053922973_458_II,-5.931344486149132e-05
1053922973_459_II,-5.919473627031187e-05
1053922973_460_II,-5.906286815316648e-05
1053922973_461_II,-5.8922362086578476e-05
1053922973_462_II,-5.8777433555959e-05
1053922973_463_II,-5.8631928112907446e-05
1053922973_464_II,-5.84892733855192e-05
1053922973_465_II,-5.8352446263464306e-05
1053922973_466_II,-5.822395430330004e-05
1053922973_467_II,-5.8105830176721075e-05
1053922973_468_II,-5.7999637814323504e-05
1053922973_469_II,-5.790648877794553e-05
1053922973_470_II,-5.782706732278289e-05
1053922973_471_II,-5.7761662582530195e-05
1053922973_472_II,-5.771020632244378e-05
1053922973_473_II,-5.767231475170233e-05
1053922973_474_II,-5.764733296273423e-05
1053922973_475_II,-5.763438066613784e-05
1053922973_476_II,-5.763239801030484e-05
1053922973_477_II,-5.764019040985968e-05
1053922973_478_II,-5.7656471451768065e-05
1053922973_479_II,-5.767990309798241e-05
1053922973_480_II,-5.770913255469693e-05
1053922973_481_II,-5.7742825327033574e-05
1053922973_482_II,-5.777969412109229e-05
1053922973_483_II,-5.7818523390087734e-05
1053922973_484_II,-5.785818944556773e-05
1053922973_485_II,-5.789767616676868e-05
1053922973_486_II,-5.7936086439785365e-05
1053922973_487_II,-5.797264954264547e-05
1053922973_488_II,-5.800672476222692e-05
1053922973_489_II,-5.80378015842621e-05
1053922973_490_II,-5.806549683879595e-05
1053922973_491_II,-5.808954921105223e-05
1053922973_492_II,-5.81098115426025e-05
1053922973_493_II,-5.812624135110819e-05
1053922973_494_II,-5.813888998994557e-05
1053922973_495_II,-5.81478908530571e-05
1053922973_496_II,-5.815344700678858e-05
1053922973_497_II,-5.815581860067901e-05
1053922973_498_II,-5.815531037456322e-05
1053922973_499_II,-5.815225954127412e-05
1053922973_500_II,-5.814702428396826e-05
1053922973_501_II,-5.8139973065828455e-05
1053922973_502_II,-5.813147490869358e-05
1053922973_503_II,-5.812189075697812e-05
1053922973_504_II,-5.811156600489114e-05
1053922973_505_II,-5.8100824229131394e-05
1053922973_506_II,-5.808996213646877e-05
1053922973_507_II,-5.8079245706338296e-05
1053922973_508_II,-5.806890748305777e-05
1053922973_509_II,-5.805914495070156e-05
1053922973_510_II,-5.805011990607723e-05
1053922973_511_II,-5.80419587316167e-05
1053922973_512_II,-5.80347534601796e-05
1053922973_513_II,-5.8028563517569935e-05
1053922973_514_II,-5.8023418025724065e-05
1053922973_515_II,-5.80193185497239e-05
1053922973_516_II,-5.801624217467907e-05
1053922973_517_II,-5.8014144803731015e-05
1053922973_518_II,-5.8012964575580155e-05
1053922973_519_II,-5.801262530863767e-05
1053922973_520_II,-5.801303988877947e-05
1053922973_521_II,-5.801411352836916e-05
1053922973_522_II,-5.801574683537825e-05
1053922973_523_II,-5.8017838642754854e-05
1053922973_524_II,-5.80202885593927e-05
1053922973_525_II,-5.802299921488633e-05
1053922973_526_II,-5.8025878180514704e-05
1053922973_527_II,-5.802883955840024e-05
1053922973_528_II,-5.8031805239409616e-05
1053922973_529_II,-5.803470583799429e-05
1053922973_530_II,-5.8037481318747954e-05
1053922973_531_II,-5.80400813349511e-05
1053922973_532_II,-5.8042465303774024e-05
1053922973_533_II,-5.804460224614073e-05
1053922973_534_II,-5.804647042155994e-05
1053922973_535_II,-5.804805678956989e-05
1053922973_536_II,-5.804935632989571e-05
1053922973_537_II,-5.805037125307554e-05
1053922973_538_II,-5.805111013226786e-05
1053922973_539_II,-5.805158698531489e-05
1053922973_540_II,-5.805182033400752e-05
1053922973_541_II,-5.805183226498314e-05
1053922973_542_II,-5.8051647513889916e-05
1053922973_543_II,-5.80512925914665e-05
1053922973_544_II,-5.8050794967105526e-05
1053922973_545_II,-5.8050182322375366e-05
1053922973_546_II,-5.804948188393959e-05
1053922973_547_II,-5.804871984240328e-05
1053922973_548_II,-5.80479208608806e-05
1053922973_549_II,-5.8047107674565744e-05
1053922973_550_II,-5.804630078032985e-05
1053922973_551_II,-5.80455182133853e-05
1053922973_552_II,-5.8044775406370496e-05
1053922973_553_II,-5.80440851248182e-05
1053922973_554_II,-5.8043457471877674e-05
1053922973_555_II,-5.8042899954357805e-05
1053922973_556_II,-5.804241760162931e-05
1053922973_557_II,-5.804201312865258e-05
1053922973_558_II,-5.8041687134358516e-05
1053922973_559_II,-5.804143832677989e-05
1053922973_560_II,-5.804126376668084e-05
1053922973_561_II,-5.804115912193451e-05
1053922973_562_II,-5.804111892552473e-05
1053922973_563_II,-5.804113683076823e-05
1053922973_564_II,-5.804120585814173e-05
1053922973_565_II,-5.804131862892774e-05
1053922973_566_II,-5.804146758173968e-05
1053922973_567_II,-5.804164516882999e-05
1053922973_568_II,-5.804184402990399e-05
1053922973_569_II,-5.8042057141942366e-05
1053922973_570_II,-5.804227794426172e-05
1053922973_571_II,-5.8042500438704586e-05
1053922973_572_II,-5.804271926544098e-05
1053922973_573_II,-5.804292975537514e-05
1053922973_574_II,-5.8043127960582905e-05
1053922973_575_II,-5.804331066455422e-05
1053922973_576_II,-5.804347537428424e-05
1053922973_577_II,-5.8043620296447365e-05
1053922973_578_II,-5.804374430000589e-05
1053922973_579_II,-5.8043846867654595e-05
